-2056.51020674491,-2053.18507384299,-2049.86531731356,-2046.55092846363,-2043.24189861429,-2039.93821910062,-2036.63988127175,-2033.34687649079,-2030.05919613479,-2026.77683159477,-2023.49977427566,-2020.22801559628,-2016.96154698934,-2013.70035990139,-2010.44444579282,-2007.19379613781,-2003.94840242434,-2000.70825615416,-1997.47334884274,-1994.24367201929,-1991.01921722669,-1987.79997602152,-1984.585939974,-1981.37710066798,-1978.17344970093,-1974.97497868388,-1971.78167924145,-1968.59354301178,-1965.41056164656,-1962.23272681095,-1959.0600301836,-1955.8924634566,-1952.7300183355,-1949.57268653924,-1946.42045980015,-1943.27332986394,-1940.13128848965,-1936.99432744966,-1933.86243852965,-1930.73561352858,-1927.61384425866,-1924.49712254535,-1921.38544022734,-1918.27878915647,-1915.17716119782,-1912.08054822956,-1908.98894214304,-1905.90233484269,-1902.82071824605,-1899.74408428371,-1896.67242489933,-1893.60573204957,-1890.54399770412,-1887.48721384563,-1884.43537246974,-1881.388465585,-1878.34648521292,-1875.30942338788,-1872.27727215714,-1869.25002358083,-1866.22766973193,-1863.21020269621,-1860.19761457225,-1857.18989747141,-1854.1870435178,-1851.18904484825,-1848.19589361234,-1845.2075819723,-1842.22410210307,-1839.24544619222,-1836.27160643996,-1833.30257505911,-1830.33834427507,-1827.37890632583,-1824.42425346193,-1821.47437794642,-1818.52927205487,-1815.58892807535,-1812.65333830838,-1809.72249506694,-1806.79639067645,-1803.87501747472,-1800.95836781195,-1798.04643405073,-1795.13920856597,-1792.23668374493,-1789.33885198716,-1786.44570570453,-1783.55723732114,-1780.67343927338,-1777.79430400983,-1774.91982399131,-1772.04999169082,-1769.18479959352,-1766.32424019674,-1763.46830600992,-1760.61698955462,-1757.77028336451,-1754.9281799853,-1752.09067197478,-1749.25775190276,-1746.42941235106,-1743.6056459135,-1740.78644519588,-1737.97180281595,-1735.16171140339,-1732.35616359982,-1729.55515205872,-1726.75866944549,-1723.96670843736,-1721.17926172341,-1718.39632200454,-1715.61788199345,-1712.84393441463,-1710.07447200433,-1707.30948751054,-1704.54897369297,-1701.79292332306,-1699.04132918392,-1696.29418407033,-1693.55148078872,-1690.81321215716,-1688.07937100532,-1685.34995017447,-1682.62494251746,-1679.90434089868,-1677.18813819408,-1674.47632729111,-1671.76890108873,-1669.06585249737,-1666.36717443895,-1663.6728598468,-1660.9829016657,-1658.29729285182,-1655.61602637274,-1652.9390952074,-1650.26649234608,-1647.59821079042,-1644.93424355334,-1642.2745836591,-1639.61922414321,-1636.96815805244,-1634.32137844482,-1631.6788783896,-1629.04065096722,-1626.40668926932,-1623.77698639872,-1621.15153546937,-1618.53032960638,-1615.91336194595,-1613.30062563539,-1610.69211383309,-1608.0878197085,-1605.48773644213,-1602.89185722548,-1600.3001752611,-1597.7126837625,-1595.12937595417,-1592.55024507158,-1589.9752843611,-1587.40448708004,-1584.83784649662,-1582.27535588992,-1579.7170085499,-1577.16279777739,-1574.61271688401,-1572.06675919222,-1569.52491803528,-1566.98718675722,-1564.45355871284,-1561.92402726767,-1559.39858579798,-1556.87722769074,-1554.35994634363,-1551.84673516499,-1549.33758757381,-1546.83249699975,-1544.33145688307,-1541.83446067464,-1539.34150183591,-1536.85257383894,-1534.3676701663,-1531.88678431112,-1529.40990977705,-1526.93704007824,-1524.46816873932,-1522.00328929541,-1519.54239529207,-1517.0854802853,-1514.6325378415,-1512.18356153751,-1509.73854496051,-1507.2974817081,-1504.86036538819,-1502.42718961904,-1499.99794802924,-1497.57263425766,-1495.15124195346,-1492.73376477609,-1490.32019639524,-1487.91053049081,-1485.50476075296,-1483.10288088202,-1480.70488458853,-1478.31076559319,-1475.92051762684,-1473.53413443047,-1471.1516097552,-1468.77293736223,-1466.39811102286,-1464.02712451847,-1461.65997164047,-1459.29664619034,-1456.93714197955,-1454.58145282961,-1452.22957257199,-1449.88149504814,-1447.53721410949,-1445.19672361738,-1442.8600174431,-1440.52708946784,-1438.19793358268,-1435.87254368859,-1433.55091369638,-1431.23303752672,-1428.91890911011,-1426.60852238686,-1424.30187130709,-1421.99894983067,-1419.69975192728,-1417.40427157632,-1415.11250276692,-1412.82443949795,-1410.54007577798,-1408.25940562526,-1405.9824230677,-1403.7091221429,-1401.43949689807,-1399.17354139005,-1396.9112496853,-1394.65261585988,-1392.3976339994,-1390.14629819906,-1387.89860256359,-1385.65454120726,-1383.41410825386,-1381.17729783668,-1378.94410409849,-1376.71452119152,-1374.48854327749,-1372.26616452753,-1370.0473791222,-1367.83218125147,-1365.62056511472,-1363.41252492068,-1361.20805488747,-1359.00714924253,-1356.80980222268,-1354.61600807401,-1352.42576105194,-1350.23905542116,-1348.05588545567,-1345.87624543868,-1343.70012966268,-1341.52753242937,-1339.35844804967,-1337.1928708437,-1335.03079514075,-1332.8722152793,-1330.71712560698,-1328.56552048054,-1326.41739426588,-1324.27274133798,-1322.13155608095,-1319.99383288795,-1317.85956616122,-1315.72875031206,-1313.60137976079,-1311.47744893675,-1309.35695227831,-1307.2398842328,-1305.12623925656,-1303.01601181486,-1300.90919638196,-1298.80578744101,-1296.70577948413,-1294.60916701229,-1292.51594453539,-1290.42610657219,-1288.33964765034,-1286.25656230629,-1284.17684508537,-1282.10049054169,-1280.02749323821,-1277.95784774664,-1275.89154864749,-1273.82859053003,-1271.76896799226,-1269.71267564094,-1267.65970809155,-1265.61005996824,-1263.5637259039,-1261.52070054007,-1259.48097852696,-1257.44455452343,-1255.41142319697,-1253.3815792237,-1251.35501728835,-1249.33173208424,-1247.31171831327,-1245.29497068591,-1243.28148392118,-1241.27125274663,-1239.26427189835,-1237.26053612093,-1235.26004016747,-1233.26277879954,-1231.26874678719,-1229.27793890891,-1227.29034995166,-1225.3059747108,-1223.32480799013,-1221.34684460184,-1219.3720793665,-1217.40050711307,-1215.43212267885,-1213.46692090952,-1211.50489665907,-1209.54604478981,-1207.59036017237,-1205.63783768567,-1203.68847221689,-1201.74225866151,-1199.79919192324,-1197.85926691404,-1195.92247855409,-1193.98882177179,-1192.05829150374,-1190.13088269472,-1188.2065902977,-1186.28540927378,-1184.36733459225,-1182.45236123049,-1180.54048417402,-1178.63169841649,-1176.72599895961,-1174.82338081318,-1172.92383899508,-1171.02736853125,-1169.13396445565,-1167.24362181028,-1165.35633564517,-1163.47210101834,-1161.59091299579,-1159.71276665152,-1157.83765706748,-1155.96557933358,-1154.09652854767,-1152.23049981552,-1150.36748825081,-1148.50748897514,-1146.65049711796,-1144.79650781665,-1142.94551621639,-1141.09751747027,-1139.25250673916,-1137.41047919181,-1135.57143000474,-1133.73535436228,-1131.90224745655,-1130.07210448746,-1128.24492066264,-1126.42069119751,-1124.59941131521,-1122.78107624659,-1120.96568123024,-1119.15322151241,-1117.34369234709,-1115.53708899589,-1113.73340672811,-1111.93264082069,-1110.13478655822,-1108.3398392329,-1106.54779414454,-1104.75864660057,-1102.97239191597,-1101.18902541335,-1099.40854242282,-1097.6309382821,-1095.8562083364,-1094.08434793848,-1092.31535244862,-1090.54921723458,-1088.78593767164,-1087.02550914252,-1085.26792703744,-1083.51318675406,-1081.76128369747,-1080.0122132802,-1078.26597092221,-1076.52255205085,-1074.78195210085,-1073.04416651436,-1071.30919074087,-1069.57702023723,-1067.84765046764,-1066.12107690365,-1064.3972950241,-1062.67630031516,-1060.9580882703,-1059.24265439028,-1057.52999418311,-1055.82010316408,-1054.11297685575,-1052.40861078788,-1050.70700049749,-1049.00814152881,-1047.31202943325,-1045.61865976945,-1043.9280281032,-1042.24013000748,-1040.55496106242,-1038.8725168553,-1037.19279298052,-1035.51578503963,-1033.84148864127,-1032.16989940119,-1030.50101294223,-1028.83482489429,-1027.17133089436,-1025.51052658648,-1023.85240762172,-1022.19696965818,-1020.544208361,-1018.89411940233,-1017.24669846128,-1015.60194122399,-1013.95984338356,-1012.32040064004,-1010.68360870044,-1009.04946327873,-1007.41796009579,-1005.78909487942,-1004.16286336434,-1002.53926129214,-1000.91828441134,-999.299928477283,-997.684189252215,-996.071062505213,-994.460544012202,-992.852629555936,-991.247314925986,-989.644595918733,-988.044468337353,-986.446927991811,-984.851970698842,-983.25959228195,-981.669788571387,-980.08255540415,-978.497888623967,-976.915784081285,-975.336237633262,-973.759245143752,-972.1848024833,-970.612905529125,-969.043550165113,-967.476732281807,-965.912447776391,-964.350692552686,-962.791462521136,-961.234753598794,-959.680561709318,-958.128882782957,-956.579712756537,-955.033047573458,-953.488883183677,-951.947215543698,-950.408040616565,-948.87135437185,-947.337152785638,-945.805431840524,-944.276187525598,-942.749415836433,-941.225112775079,-939.703274350049,-938.183896576311,-936.666975475274,-935.152507074784,-933.640487409106,-932.130912518918,-930.623778451301,-929.119081259725,-927.616817004044,-926.11698175048,-924.619571571618,-923.124582546391,-921.632010760074,-920.141852304269,-918.654103276901,-917.168759782201,-915.6858179307,-914.205273839218,-912.727123630855,-911.251363434978,-909.777989387212,-908.30699762943,-906.838384309747,-905.372145582501,-903.908277608251,-902.446776553763,-900.987638592,-899.530859902116,-898.07643666944,-896.624365085469,-895.174641347859,-893.727261660413,-892.282222233074,-890.839519281911,-889.399149029112,-887.961107702973,-886.525391537889,-885.091996774342,-883.660919658895,-882.232156444179,-880.805703388884,-879.381556757747,-877.959712821549,-876.540167857096,-875.122918147219,-873.707959980756,-872.295289652545,-870.884903463417,-869.476797720183,-868.070968735625,-866.667412828489,-865.266126323469,-863.867105551207,-862.470346848273,-861.075846557164,-859.68360102629,-858.293606609962,-856.905859668389,-855.520356567665,-854.137093679757,-852.756067382502,-851.377274059592,-850.000710100564,-848.626371900795,-847.25425586149,-845.884358389673,-844.516675898177,-843.151204805634,-841.787941536469,-840.426882520887,-839.068024194864,-837.711363000142,-836.356895384211,-835.004617800311,-833.654526707413,-832.306618570213,-830.960889859126,-829.617337050272,-828.275956625468,-826.936745072221,-825.599698883716,-824.264814558811,-822.932088602021,-821.601517523515,-820.273097839105,-818.946826070237,-817.622698743979,-816.300712393016,-814.980863555639,-813.663148775736,-812.347564602783,-811.034107591836,-809.722774303521,-808.413561304024,-807.106465165084,-805.801482463983,-804.498609783537,-803.197843712087,-801.89918084349,-800.602617777112,-799.308151117816,-798.015777475953,-796.725493467358,-795.437295713336,-794.151180840656,-792.86714548154,-791.585186273655,-790.305299860106,-789.027482889426,-787.751732015564,-786.478043897882,-785.206415201143,-783.936842595501,-782.669322756497,-781.403852365045,-780.140428107426,-778.87904667528,-777.619704765593,-776.362399080696,-775.10712632825,-773.853883221238,-772.60266647796,-771.353472822019,-770.10629898232,-768.861141693054,-767.617997693694,-766.376863728982,-765.137736548927,-763.90061290879,-762.665489569081,-761.432363295545,-760.20123085916,-758.972089036121,-757.744934607838,-756.519764360926,-755.296575087194,-754.075363583638,-752.856126652433,-751.638861100925,-750.423563741623,-749.210231392189,-747.99886087543,-746.789449019292,-745.581992656846,-744.376488626288,-743.172933770923,-741.971324939163,-740.771658984513,-739.573932765567,-738.378143145997,-737.184286994549,-735.992361185029,-734.802362596298,-733.614288112266,-732.428134621877,-731.24389901911,-730.061578202963,-728.881169077449,-727.702668551587,-726.526073539393,-725.351380959874,-724.178587737017,-723.007690799784,-721.838687082102,-720.671573522856,-719.506347065878,-718.343004659945,-717.181543258765,-716.021959820973,-714.86425131012,-713.708414694669,-712.554446947982,-711.402345048317,-710.252105978816,-709.103726727499,-707.957204287257,-706.812535655844,-705.669717835865,-704.528747834775,-703.389622664867,-702.252339343264,-701.116894891911,-699.98328633757,-698.851510711809,-697.721565050996,-696.593446396292,-695.467151793641,-694.342678293763,-693.220022952148,-692.099182829045,-690.980154989458,-689.862936503137,-688.747524444567,-687.633915892967,-686.522107932275,-685.412097651147,-684.303882142944,-683.197458505728,-682.092823842253,-680.989975259957,-679.888909870954,-678.789624792031,-677.692117144633,-676.596384054861,-675.502422653463,-674.410230075826,-673.319803461967,-672.231139956529,-671.144236708773,-670.059090872567,-668.975699606382,-667.894060073284,-666.814169440925,-665.736024881536,-664.659623571922,-663.584962693452,-662.512039432052,-661.440850978198,-660.37139452691,-659.303667277741,-658.237666434775,-657.173389206613,-656.110832806374,-655.049994451678,-653.990871364647,-652.933460771894,-651.877759904516,-650.823765998088,-649.771476292653,-648.720888032717,-647.671998467242,-646.624804849638,-645.579304437756,-644.53549449388,-643.493372284721,-642.45293508141,-641.414180159491,-640.37710479891,-639.341706284013,-638.307981903539,-637.275928950606,-636.245544722713,-635.216826521728,-634.189771653879,-633.164377429752,-632.140641164281,-631.118560176741,-630.098131790741,-629.079353334217,-628.062222139429,-627.046735542945,-626.032890885645,-625.020685512704,-624.010116773591,-623.001182022064,-621.993878616153,-620.988203918166,-619.984155294672,-618.9817301165,-617.980925758729,-616.981739600683,-615.984169025923,-614.98821142224,-613.993864181649,-613.001124700382,-612.009990378881,-611.02045862179,-610.032526837952,-609.046192440396,-608.061452846339,-607.078305477168,-606.096747758444,-605.116777119888,-604.138390995378,-603.161586822941,-602.186362044747,-601.212714107099,-600.240640460434,-599.270138559306,-598.301205862388,-597.333839832462,-596.36803793641,-595.403797645213,-594.441116433939,-593.479991781739,-592.520421171839,-591.562402091537,-590.605932032192,-589.651008489218,-588.697628962081,-587.745790954288,-586.795491973384,-585.846729530944,-584.899501142566,-583.953804327864,-583.009636610465,-582.066995517998,-581.125878582091,-580.186283338362,-579.248207326413,-578.311648089826,-577.376603176154,-576.443070136915,-575.511046527586,-574.580529907596,-573.651517840321,-572.724007893077,-571.797997637112,-570.873484647603,-569.950466503645,-569.028940788251,-568.108905088337,-567.190356994726,-566.273294102133,-565.357714009164,-564.443614318306,-563.530992635924,-562.619846572252,-561.710173741389,-560.80197176129,-559.895238253765,-558.989970844465,-558.086167162883,-557.183824842344,-556.28294152,-555.383514836823,-554.4855424376,-553.589021970924,-552.693951089193,-551.800327448599,-550.908148709123,-550.017412534532,-549.128116592369,-548.240258553947,-547.353836094346,-546.468846892405,-545.585288630716,-544.703158995617,-543.822455677187,-542.943176369242,-542.065318769324,-541.1888805787,-540.313859502354,-539.440253248978,-538.56805953097,-537.69727606443,-536.827900569146,-535.959930768597,-535.09336438994,-534.228199164007,-533.364432825301,-532.502063111985,-531.641087765883,-530.781504532467,-529.923311160857,-529.066505403809,-528.211085017716,-527.357047762596,-526.504391402091,-525.653113703458,-524.803212437563,-523.954685378879,-523.107530305475,-522.261744999013,-521.417327244743,-520.574274831496,-519.732585551675,-518.892257201257,-518.05328757978,-517.215674490339,-516.379415739584,-515.544509137709,-514.71095249845,-513.878743639078,-513.047880380393,-512.218360546718,-511.390181965894,-510.563342469274,-509.737839891719,-508.913672071588,-508.090836850738,-507.269332074513,-506.449155591743,-505.630305254734,-504.812778919267,-503.996574444588,-503.181689693405,-502.368122531883,-501.555870829635,-500.744932459719,-499.935305298635,-499.126987226312,-498.31997612611,-497.51426988481,-496.709866392612,-495.906763543123,-495.104959233361,-494.304451363741,-493.505237838073,-492.707316563556,-491.910685450775,-491.115342413692,-490.321285369641,-489.528512239325,-488.737020946807,-487.94680941951,-487.157875588206,-486.370217387011,-485.583832753384,-484.798719628118,-484.014875955336,-483.232299682483,-482.450988760326,-481.670941142942,-480.892154787719,-480.114627655347,-479.33835770981,-478.56334291839,-477.78958125165,-477.017070683438,-476.245809190877,-475.475794754361,-474.707025357549,-473.939498987359,-473.173213633968,-472.408167290797,-471.644357954516,-470.881783625032,-470.120442305487,-469.36033200225,-468.601450724915,-467.843796486294,-467.087367302411,-466.332161192501,-465.578176178999,-464.825410287537,-464.07386154694,-463.323527989222,-462.574407649576,-461.826498566375,-461.079798781161,-460.334306338645,-459.590019286697,-458.846935676346,-458.10505356177,-457.364371000293,-456.624886052383,-455.886596781642,-455.149501254801,-454.413597541722,-453.678883715382,-452.945357851877,-452.213018030415,-451.481862333308,-450.751888845967,-450.023095656903,-449.295480857713,-448.569042543083,-447.843778810778,-447.119687761639,-446.396767499579,-445.675016131575,-444.954431767665,-444.235012520944,-443.516756507557,-442.799661846695,-442.083726660591,-441.368949074512,-440.655327216759,-439.942859218658,-439.231543214556,-438.521377341816,-437.812359740816,-437.104488554937,-436.397761930563,-435.692178017077,-434.987734966852,-434.284430935249,-433.582264080611,-432.881232564261,-432.181334550493,-431.48256820657,-430.784931702717,-430.088423212119,-429.393040910914,-428.69878297819,-428.005647595979,-427.31363294925,-426.622737225909,-425.932958616792,-425.24429531566,-424.556745519194,-423.87030742699,-423.184979241558,-422.500759168311,-421.817645415566,-421.135636194535,-420.454729719325,-419.774924206926,-419.096217877217,-418.418608952949,-417.742095659752,-417.066676226122,-416.39234888342,-415.719111865867,-415.046963410538,-414.37590175736,-413.705925149105,-413.037031831386,-412.369220052654,-411.70248806419,-411.036834120103,-410.372256477326,-409.708753395609,-409.046323137518,-408.384963968426,-407.724674156512,-407.065451972762,-406.40729569094,-405.750203587614,-405.094173942135,-404.439205036636,-403.785295156028,-403.132442587999,-402.480645623003,-401.829902554259,-401.180211677745,-400.531571292191,-399.883979699082,-399.237435202647,-398.591936109855,-397.947480730415,-397.30406737677,-396.661694364087,-396.020360010266,-395.380062635919,-394.740800564377,-394.102572121677,-393.465375636569,-392.829209440502,-392.194071867625,-391.559961254779,-390.926875941495,-390.294814269991,-389.663774585161,-389.033755234575,-388.404754568473,-387.77677093977,-387.149802704039,-386.523848219515,-385.898905847087,-385.274973950289,-384.652050895304,-384.030135050958,-383.409224788716,-382.789318482673,-382.170414509554,-381.552511248704,-380.935607082096,-380.319700394312,-379.704789572551,-379.090873006621,-378.477949088931,-377.866016214491,-377.255072780908,-376.645117188375,-376.03614783967,-375.428163140152,-374.821161497766,-374.215141323033,-373.610101029036,-373.006039031429,-372.402953748422,-371.800843600788,-371.199707011854,-370.599542407493,-370.000348216125,-369.402122868713,-368.804864798755,-368.208572442283,-367.613244237861,-367.018878626568,-366.425474052009,-365.833028960298,-365.24154180007,-364.651011022467,-364.061435081137,-363.472812432224,-362.885141534372,-362.298420848719,-361.712648838887,-361.127823970984,-360.543944713597,-359.961009537792,-359.379016917099,-358.797965327522,-358.217853247536,-357.638679158061,-357.060441542486,-356.483138886645,-355.906769678826,-355.331332409758,-354.756825572611,-354.183247662989,-353.610597178928,-353.038872620892,-352.468072491774,-351.898195296889,-351.329239543963,-350.761203743142,-350.194086406973,-349.627886050407,-349.062601190799,-348.498230347903,-347.934772043872,-347.372224803239,-346.810587152927,-346.249857622239,-345.690034742858,-345.131117048842,-344.573103076617,-344.01599136497,-343.459780455062,-342.904468890412,-342.350055216887,-341.796537982714,-341.243915738462,-340.692187037038,-340.141350433694,-339.591404486016,-339.04234775392,-338.494178799652,-337.946896187783,-337.400498485212,-336.854984261143,-336.310352087099,-335.76660053692,-335.223728186746,-334.681733615016,-334.140615402475,-333.60037213216,-333.061002389395,-332.522504761794,-331.984877839251,-331.448120213947,-330.912230480332,-330.377207235138,-329.843049077363,-329.309754608267,-328.777322431369,-328.245751152445,-327.715039379528,-327.185185722908,-326.656188795116,-326.12804721093,-325.600759587362,-325.074324543665,-324.548740701321,-324.024006684045,-323.500121117776,-322.977082630673,-322.454889853115,-321.933541417696,-321.413035959219,-320.893372114691,-320.374548523327,-319.856563826544,-319.339416667953,-318.823105693362,-318.307629550759,-317.792986890325,-317.279176364425,-316.766196627604,-316.254046336579,-315.742724150233,-315.232228729629,-314.722558737992,-314.213712840709,-313.70568970532,-313.19848800151,-312.692106401135,-312.186543578189,-311.681798208811,-311.177868971277,-310.674754546006,-310.172453615555,-309.670964864601,-309.170286979944,-308.670418650512,-308.171358567359,-307.673105423652,-307.175657914671,-306.6790147378,-306.183174592533,-305.688136180471,-305.193898205312,-304.700459372851,-304.207818390974,-303.715973969653,-303.224924820951,-302.734669659016,-302.24520720007,-301.756536162407,-301.268655266398,-300.78156323449,-300.295258791184,-299.809740663045,-299.325007578702,-298.841058268838,-298.357891466189,-297.875505905538,-297.393900323716,-296.91307345959,-296.433024054066,-295.953750850095,-295.475252592659,-294.997528028767,-294.520575907452,-294.044394979767,-293.568983998789,-293.094341719611,-292.620466899346,-292.14735829711,-291.675014674018,-291.203434793197,-290.732617419776,-290.262561320877,-289.793265265616,-289.324728025094,-288.856948372407,-288.389925082627,-287.923656932813,-287.458142701997,-286.993381171184,-286.529371123352,-286.066111343443,-285.603600618371,-285.141837737011,-284.680821490192,-284.220550670702,-283.761024073277,-283.302240494611,-282.844198733333,-282.38689759001,-281.93033586716,-281.474512369238,-281.019425902624,-280.565075275628,-280.111459298498,-279.658576783397,-279.206426544412,-278.755007397541,-278.304318160697,-277.854357653709,-277.405124698317,-276.956618118165,-276.508836738802,-276.061779387663,-275.61544489408,-275.169832089289,-274.724939806412,-274.280766880455,-273.837312148306,-273.394574448739,-272.952552622398,-272.511245511805,-272.070651961359,-271.630770817322,-271.191600927829,-270.753141142867,-270.315390314285,-269.878347295792,-269.442010942951,-269.006380113181,-268.571453665737,-268.137230461714,-267.703709364057,-267.270889237554,-266.838768948824,-266.407347366321,-265.976623360322,-265.546595802933,-265.117263568088,-264.688625531543,-264.260680570868,-263.833427565443,-263.40686539647,-262.98099294696,-262.555809101717,-262.131312747352,-261.707502772279,-261.284378066709,-260.861937522652,-260.44018003391,-260.019104496071,-259.598709806503,-259.178994864362,-258.759958570591,-258.341599827898,-257.923917540769,-257.506910615461,-257.090577959999,-256.674918484174,-256.259931099542,-255.845614719412,-255.431968258861,-255.018990634719,-254.606680765559,-254.195037571707,-253.78405997523,-253.373746899949,-252.964097271425,-252.555110016947,-252.146784065538,-251.739118347952,-251.332111796674,-250.925763345914,-250.520071931617,-250.115036491443,-249.710655964763,-249.306929292662,-248.903855417941,-248.501433285116,-248.099661840402,-247.698540031719,-247.298066808696,-246.898241122652,-246.499061926602,-246.10052817525,-245.702638824997,-245.305392833931,-244.908789161822,-244.512826770126,-244.117504621972,-243.722821682165,-243.328776917185,-242.935369295193,-242.542597786017,-242.150461361142,-241.758958993714,-241.368089658541,-240.977852332095,-240.588245992501,-240.199269619529,-239.810922194615,-239.423202700832,-239.036110122895,-238.649643447157,-238.263801661617,-237.878583755906,-237.493988721289,-237.110015550669,-236.726663238572,-236.343930781144,-235.961817176165,-235.580321423034,-235.199442522765,-234.819179477984,-234.439531292933,-234.060496973469,-233.682075527052,-233.304265962748,-232.927067291219,-232.550478524729,-232.174498677142,-231.799126763912,-231.42436180209,-231.05020281032,-230.676648808827,-230.303698819417,-229.931351865485,-229.559606972,-229.188463165511,-228.817919474139,-228.447974927573,-228.07862855707,-227.70987939546,-227.341726477139,-226.974168838054,-226.607205515714,-226.240835549187,-225.875057979102,-225.50987184763,-225.145276198493,-224.781270076955,-224.417852529826,-224.05502260546,-223.69277935375,-223.331121826123,-222.970049075539,-222.609560156492,-222.249654124999,-221.890330038602,-221.531586956378,-221.173423938922,-220.815840048348,-220.458834348285,-220.102405903871,-219.74655378176,-219.391277050114,-219.0365747786,-218.682446038396,-218.328889902178,-217.975905444122,-217.623491739897,-217.271647866665,-216.920372903083,-216.569665929302,-216.219526026958,-215.869952279176,-215.520943770558,-215.172499587191,-214.824618816634,-214.477300547923,-214.130543871566,-213.784347879544,-213.43871166531,-213.093634323773,-212.74911495131,-212.405152645755,-212.061746506402,-211.718895634002,-211.376599130766,-211.034856100355,-210.693665647873,-210.353026879879,-210.012938904373,-209.673400830791,-209.334411770016,-208.995970834372,-208.658077137614,-208.320729794922,-207.983927922922,-207.647670639658,-207.311957064605,-206.976786318657,-206.642157524137,-206.308069804783,-205.974522285748,-205.641514093596,-205.309044356311,-204.977112203278,-204.645716765297,-204.314857174574,-203.984532564717,-203.65474207073,-203.325484829016,-202.996759977377,-202.668566655004,-202.340904002486,-202.013771161811,-201.687167276346,-201.361091490835,-201.035542951412,-200.710520805595,-200.386024202276,-200.062052291723,-199.738604225577,-199.415679156854,-199.093276239931,-198.771394630559,-198.450033485855,-198.129191964299,-197.80886922573,-197.489064431346,-197.169776743699,-196.851005326703,-196.532749345618,-196.215007967053,-195.897780358971,-195.581065690669,-195.264863132791,-194.949171857324,-194.633991037599,-194.319319848277,-194.005157465353,-193.691503066149,-193.378355829328,-193.065714934876,-192.753579564106,-192.441948899652,-192.130822125477,-191.820198426854,-191.510076990383,-191.200457003978,-190.89133765686,-190.582718139558,-190.274597643918,-189.966975363087,-189.659850491523,-189.353222224986,-189.047089760528,-188.741452296509,-188.436309032579,-188.131659169684,-187.827501910059,-187.52383645723,-187.220662016017,-186.917977792521,-186.61578299413,-186.314076829503,-186.012858508587,-185.712127242608,-185.411882244069,-185.112122726735,-184.812847905652,-184.514056997133,-184.215749218756,-183.91792378937,-183.620579929082,-183.323716859257,-183.02733380252,-182.731429982758,-182.436004625113,-182.141056955975,-181.846586202988,-181.552591595046,-181.259072362287,-180.966027736095,-180.673456949094,-180.381359235153,-180.089733829377,-179.798579968111,-179.507896888931,-179.217683830643,-178.927940033293,-178.638664738151,-178.349857187715,-178.061516625713,-177.773642297087,-177.486233447993,-177.199289325822,-176.912809179177,-176.62679225786,-176.341237812898,-176.056145096543,-175.771513362246,-175.487341864657,-175.203629859636,-174.920376604249,-174.637581356763,-174.355243376642,-174.073361924548,-173.79193626234,-173.510965653069,-173.230449360974,-172.950386651489,-172.670776791235,-172.391619048019,-172.112912690831,-171.834656989842,-171.556851216401,-171.279494643039,-171.002586543457,-170.726126192537,-170.450112866335,-170.174545842073,-169.899424398153,-169.624747814132,-169.350515370729,-169.076726349831,-168.803380034492,-168.530475708914,-168.258012658461,-167.985990169649,-167.714407530151,-167.443264028791,-167.172558955547,-166.902291601547,-166.632461259062,-166.363067221499,-166.094108783414,-165.825585240505,-165.557495889606,-165.289840028698,-165.022616956887,-164.755825974416,-164.489466382655,-164.223537484101,-163.958038582389,-163.692968982273,-163.428327989631,-163.164114911469,-162.90032905591,-162.636969732194,-162.37403625068,-162.111527922845,-161.849444061272,-161.587783979656,-161.326546992807,-161.065732416638,-160.805339568174,-160.545367765537,-160.285816327959,-160.026684575771,-159.767971830402,-159.509677414372,-159.251800651303,-158.994340865912,-158.737297384002,-158.480669532468,-158.224456639301,-157.968658033575,-157.713273045445,-157.458301006155,-157.20374124802,-156.949593104436,-156.695855909888,-156.442528999933,-156.189611711193,-155.937103381367,-155.685003349225,-155.433310954609,-155.182025538429,-154.931146442657,-154.680673010334,-154.430604585561,-154.180940513496,-153.931680140361,-153.682822813431,-153.434367881045,-153.186314692592,-152.938662598506,-152.691410950272,-152.444559100423,-152.198106402538,-151.952052211255,-151.706395882244,-151.46113677222,-151.216274238941,-150.971807641202,-150.72773633883,-150.484059692691,-150.240777064691,-149.997887817762,-149.755391315854,-149.513286923954,-149.271574008076,-149.030251935259,-148.789320073562,-148.548777792073,-148.308624460897,-148.068859451156,-147.82948213499,-147.590491885559,-147.351888077032,-147.113670084589,-146.875837284426,-146.638389053734,-146.401324770719,-146.164643814596,-145.928345565586,-145.692429404911,-145.456894714793,-145.221740878441,-144.986967280076,-144.752573304908,-144.518558339143,-144.284921769989,-144.051662985628,-143.818781375233,-143.586276328968,-143.354147237981,-143.122393494405,-142.891014491356,-142.66000962295,-142.429378284268,-142.199119871371,-141.969233781282,-141.739719412007,-141.510576162532,-141.281803432805,-141.053400623756,-140.825367137276,-140.597702376218,-140.370405744413,-140.143476646653,-139.916914488694,-139.69071867725,-139.46488861999,-139.239423725542,-139.014323403492,-138.789587064385,-138.56521411972,-138.341203981939,-138.117556064432,-137.89426978154,-137.671344548558,-137.44877978172,-137.22657489821,-137.004729316146,-136.783242454584,-136.562113733535,-136.341342573943,-136.120928397682,-135.900870627556,-135.681168687312,-135.461822001624,-135.2428299961,-135.024192097271,-134.8059077326,-134.587976330479,-134.370397320227,-134.153170132076,-133.936294197175,-133.719768947604,-133.50359381636,-133.287768237348,-133.072291645404,-132.857163476268,-132.642383166599,-132.427950153956,-132.213863876807,-132.000123774531,-131.786729287413,-131.573679856654,-131.360974924346,-131.14861393348,-130.936596327956,-130.724921552578,-130.513589053041,-130.302598275944,-130.091948668773,-129.881639679906,-129.671670758608,-129.462041355043,-129.252750920267,-129.043798906221,-128.835184765727,-128.626907952501,-128.418967921127,-128.211364127084,-128.004096026729,-127.7971630773,-127.590564736899,-127.384300464514,-127.178369720015,-126.972771964139,-126.767506658502,-126.562573265571,-126.357971248686,-126.153700072071,-125.949759200815,-125.74614810086,-125.542866239017,-125.339913082964,-125.137288101225,-124.934990763192,-124.73302053912,-124.531376900121,-124.330059318151,-124.129067266024,-123.92840021741,-123.728057646829,-123.528039029656,-123.328343842106,-123.128971561249,-122.929921664982,-122.731193632066,-122.53278694209,-122.334701075492,-122.136935513558,-121.939489738397,-121.742363232966,-121.545555481057,-121.349065967302,-121.152894177165,-120.957039596926,-120.761501713706,-120.566280015458,-120.371373990968,-120.176783129831,-119.982506922473,-119.788544860158,-119.594896434953,-119.401561139757,-119.208538468301,-119.015827915116,-118.82342897556,-118.631341145799,-118.439563922827,-118.248096804435,-118.056939289228,-117.866090876625,-117.675551066858,-117.485319360962,-117.295395260785,-117.105778268979,-116.916467889,-116.727463625103,-116.538764982338,-116.35037146656,-116.162282584432,-115.97449784342,-115.787016751771,-115.599838818531,-115.412963553531,-115.226390467418,-115.040119071617,-114.85414887834,-114.668479400596,-114.483110152165,-114.298040647625,-114.113270402347,-113.928798932475,-113.744625754934,-113.56075038743,-113.377172348451,-113.193891157267,-113.010906333928,-112.828217399256,-112.645823874846,-112.463725283064,-112.281921147051,-112.100410990718,-111.919194338748,-111.738270716586,-111.557639650452,-111.377300667331,-111.197253294976,-111.017497061894,-110.838031497364,-110.65885613142,-110.479970494862,-110.301374119234,-110.123066536852,-109.945047280789,-109.767315884872,-109.589871883669,-109.412714812509,-109.235844207476,-109.059259605409,-108.882960543885,-108.706946561228,-108.531217196515,-108.355771989573,-108.180610480957,-108.005732211965,-107.831136724647,-107.656823561797,-107.482792266936,-107.309042384327,-107.135573458971,-106.96238503662,-106.789476663744,-106.61684788754,-106.444498255958,-106.272427317662,-106.100634622044,-105.929119719238,-105.757882160106,-105.586921496235,-105.416237279924,-105.245829064196,-105.075696402807,-104.905838850233,-104.73625596166,-104.566947292999,-104.397912400885,-104.229150842673,-104.060662176423,-103.892445960915,-103.724501755636,-103.556829120797,-103.389427617316,-103.222296806814,-103.055436251626,-102.888845514791,-102.722524160058,-102.556471751882,-102.390687855425,-102.225172036553,-102.059923861831,-101.894942898519,-101.730228714578,-101.565780878665,-101.401598960144,-101.237682529069,-101.074031156194,-100.910644412968,-100.747521871527,-100.584663104697,-100.422067686003,-100.259735189655,-100.097665190556,-99.9358572642868,-99.774310987116,-99.6130259360086,-99.4520016886082,-99.2912378232437,-99.1307339189155,-98.9704895553143,-98.8105043127991,-98.65077777242,-98.4913095158951,-98.332099125624,-98.1731461846818,-98.014450276818,-97.8560109864498,-97.6978278986719,-97.5399005992492,-97.3822286746182,-97.2248117118838,-97.0676492988207,-96.9107410238579,-96.7540864761023,-96.5976852453142,-96.4415369219184,-96.2856410970137,-96.1299973623538,-95.9746053103503,-95.8194645340839,-95.6645746272853,-95.5099351843391,-95.3555458002838,-95.2014060708221,-95.0475155922967,-94.8938739617125,-94.7404807767311,-94.5873356356669,-94.4344381374672,-94.2817878817378,-94.1293844687289,-93.9772274993381,-93.8253165751132,-93.6736512982337,-93.522231271535,-93.37105609849,-93.2201253832122,-93.0694387304572,-92.9189957456271,-92.7687960347448,-92.6188392044873,-92.4691248621582,-92.3196526156957,-92.1704220736723,-92.0214328452978,-91.8726845404091,-91.7241767694787,-91.5759091436031,-91.4278812745044,-91.2800927745439,-91.1325432567037,-90.9852323345888,-90.8381596224295,-90.6913247350812,-90.54472728802,-90.3983668973491,-90.2522431797908,-90.1063557526851,-89.9607042339924,-89.8152882422915,-89.6701073967841,-89.5251613172744,-89.3804496241974,-89.2359719385946,-89.0917278821197,-88.9477170770334,-88.8039391462035,-88.6603937131161,-88.517080401865,-88.3739988371431,-88.2311486442646,-88.0885294491355,-87.9461408782815,-87.8039825588214,-87.6620541184914,-87.5203551856225,-87.3788853891381,-87.2376443585547,-87.0966317240003,-86.9558471162032,-86.8152901664844,-86.6749605067607,-86.5348577695485,-86.394981587957,-86.255331595684,-86.115907427016,-85.9767087168413,-85.837735100642,-85.698986214478,-85.560461695001,-85.4221611794508,-85.2840843056577,-85.1462307120352,-85.00860003757,-84.8711919218429,-84.7340060050181,-84.5970419278463,-84.460299331652,-84.3237778583345,-84.1874771503796,-84.0513968508551,-83.9155366034053,-83.7798960522441,-83.6444748421567,-83.5092726185085,-83.3742890272388,-83.2395237148642,-83.1049763284741,-82.9706465157168,-82.836533924813,-82.7026382045598,-82.5689590043075,-82.4354959739839,-82.3022487640762,-82.1692170256477,-82.0364004103342,-81.903798570317,-81.7714111583455,-81.6392378277348,-81.507278232354,-81.375532026635,-81.2439988655711,-81.1126784047104,-80.9815703001509,-80.8506742085535,-80.7199897871358,-80.5895166936632,-80.4592545864607,-80.3292031243932,-80.1993619668836,-80.0697307739115,-79.9403092060092,-79.8110969242566,-79.6820935902746,-79.5532988662324,-79.4247124148532,-79.2963338993947,-79.1681629836651,-79.0401993320139,-78.9124426093361,-78.7848924810635,-78.6575486131794,-78.5304106722062,-78.4034783251915,-78.2767512397319,-78.1502290839521,-78.0239115265136,-77.8977982366271,-77.7718888840257,-77.6461831389884,-77.5206806723232,-77.3953811553627,-77.2702842599853,-77.1453896585982,-77.0206970241245,-76.8962060300203,-76.7719163502717,-76.6478276593871,-76.5239396324129,-76.4002519449121,-76.2767642729692,-76.1534762932013,-76.0303876827465,-75.9074981192666,-75.7848072809399,-75.6623148464679,-75.5400204950679,-75.4179239064717,-75.2960247609406,-75.1743227392494,-75.0528175226912,-74.9315087930752,-74.8103962327111,-74.6894795244344,-74.5687583515861,-74.4482323980215,-74.3279013481157,-74.2077648867484,-74.087822699307,-73.9680744716963,-73.8485198903237,-73.7291586420954,-73.6099904144314,-73.4910148952529,-73.3722317729837,-73.2536407365617,-73.1352414754231,-73.0170336795095,-72.8990170392522,-72.7811912455941,-72.6635559899765,-72.5461109643343,-72.428855861109,-72.3117903732324,-72.1949141941333,-72.0782270177414,-71.9617285384697,-71.8454184512382,-71.7292964514621,-71.6133622350293,-71.4976154983271,-71.3820559382379,-71.2666832521411,-71.1514971379017,-71.0364972938789,-70.9216834189017,-70.8070552123018,-70.6926123738911,-70.5783546039652,-70.4642816033053,-70.3503930731836,-70.236688715349,-70.1231682320311,-70.0098313259301,-69.8966777002353,-69.7837070586264,-69.6709191052555,-69.5583135447586,-69.4458900822565,-69.3336484233304,-69.2215882740244,-69.1097093408754,-68.998011330898,-68.8864939515852,-68.7751569108987,-68.6639999172659,-68.5530226795845,-68.442224907224,-68.3316063100279,-68.2211665983061,-68.1109054828397,-68.0008226748748,-67.8909178861255,-67.7811908287672,-67.6716412154504,-67.5622687592826,-67.4530731738346,-67.3440541731378,-67.2352114716961,-67.1265447844759,-67.0180538269026,-66.9097383148578,-66.8015979646805,-66.6936324931772,-66.5858416176041,-66.4782250556693,-66.3707825255477,-66.2635137458761,-66.1564184357394,-66.0494963146665,-65.9427471026475,-65.8361705201246,-65.7297662879944,-65.6235341276019,-65.5174737607436,-65.4115849096637,-65.3058672970547,-65.2003206460588,-65.0949446802704,-64.98973912373,-64.8847037009241,-64.7798381367886,-64.6751421566974,-64.5706154864662,-64.4662578523537,-64.3620689810652,-64.2580485997428,-64.1541964359818,-64.0505122178205,-63.946995673722,-63.8436465325887,-63.7404645237688,-63.6374493770458,-63.5346008226342,-63.4319185911928,-63.329402413819,-63.2270520220437,-63.1248671478193,-63.022847523545,-62.9209928820464,-62.8193029565758,-62.7177774808269,-62.6164161889257,-62.5152188154176,-62.4141850952806,-62.3133147639274,-62.2126075571911,-62.1120632113384,-62.0116814630483,-61.9114620494379,-61.8114047080534,-61.7115091768555,-61.6117751942371,-61.5122024990194,-61.4127908304404,-61.3135399281563,-61.2144495322375,-61.1155193831718,-61.0167492218763,-60.9181387896854,-60.8196878283597,-60.7213960800759,-60.6232632874175,-60.5252891933907,-60.4274735414223,-60.3298160753414,-60.2323165393982,-60.1349746782549,-60.0377902369858,-59.940762961074,-59.8438925964273,-59.7471788893491,-59.6506215865615,-59.5542204351911,-59.4579751827824,-59.3618855772861,-59.2659513670499,-59.1701723008323,-59.0745481278078,-58.9790785975492,-58.8837634600363,-58.78860246565,-58.6935953651779,-58.5987419098082,-58.5040418511343,-58.409494941138,-58.315100932218,-58.2208595771752,-58.1267706292011,-58.0328338418938,-57.9390489692376,-57.845415765616,-57.751933985815,-57.6586033850224,-57.565423718814,-57.4723947431685,-57.3795162144554,-57.2867878894357,-57.1942095252559,-57.101780879468,-57.0095017100148,-56.9173717752338,-56.8253908338483,-56.7335586449776,-56.6418749681202,-56.5503395631663,-56.4589521903883,-56.3677126104502,-56.2766205844117,-56.1856758737128,-56.0948782401748,-56.0042274460047,-55.9137232538079,-55.8233654265635,-55.7331537276341,-55.6430879207685,-55.5531677700854,-55.4633930401005,-55.373763495705,-55.2842789021753,-55.1949390251635,-55.1057436306942,-55.0166924851683,-54.9277853553664,-54.8390220084496,-54.750402211953,-54.6619257338004,-54.5735923422801,-54.4854018060517,-54.3973538941543,-54.3094483760079,-54.2216850213892,-54.134063600454,-54.0465838837327,-53.9592456421231,-53.8720486468918,-53.784992669678,-53.6980774824857,-53.6113028576948,-53.5246685680537,-53.4381743866823,-53.3518200870538,-53.2656054430115,-53.1795302287733,-53.0935942189112,-53.0077971883663,-52.9221389124362,-52.8366191667847,-52.7512377274443,-52.665994370808,-52.5808888736347,-52.4959210130463,-52.4110905665155,-52.3263973118784,-52.2418410273308,-52.1574214914355,-52.0731384830958,-51.9889917815761,-51.9049811665041,-51.8211064178621,-51.7373673159898,-51.6537636415846,-51.5702951756937,-51.486961699722,-51.4037629954199,-51.3206988448914,-51.237769030604,-51.154973335368,-51.0723115423483,-50.9897834350685,-50.9073887973838,-50.8251274135072,-50.7429990680008,-50.6610035457753,-50.5791406320968,-50.4974101125693,-50.4158117731543,-50.3343454001436,-50.2530107801697,-50.1718077002225,-50.0907359476395,-50.0097953101012,-49.9289855756271,-49.8483065325836,-49.767757969678,-49.6873396759521,-49.6070514407982,-49.5268930539487,-49.4468643054707,-49.3669649857714,-49.2871948855966,-49.2075537960348,-49.1280415085139,-49.0486578147954,-48.9694025069669,-48.8902753774576,-48.8112762190401,-48.732404824824,-48.6536609882571,-48.5750445031131,-48.496555163494,-48.4181927638372,-48.3399570989118,-48.2618479638205,-48.1838651540036,-48.106008465223,-48.0282776935758,-47.9506726354824,-47.8731930877008,-47.7958388473238,-47.7186097117665,-47.6415054787643,-47.5645259463831,-47.4876709130087,-47.410940177359,-47.3343335384875,-47.2578507957577,-47.181491748868,-47.1052561978215,-47.0291439429647,-46.9531547849618,-46.8772885247989,-46.8015449637861,-46.7259239035517,-46.6504251460465,-46.5750484935352,-46.4997937486124,-46.4246607141943,-46.3496491935078,-46.2747589900909,-46.199989907808,-46.1253417508362,-46.0508143236783,-45.9764074311474,-45.9021208783695,-45.8279544707856,-45.7539080141539,-45.6799813145546,-45.6061741783728,-45.5324864123031,-45.4589178233591,-45.385468218863,-45.3121374064501,-45.2389251940731,-45.1658313899862,-45.0928558027614,-45.0199982412725,-44.94725851471,-44.8746364325633,-44.8021318046343,-44.7297444410362,-44.6574741521864,-44.5853207488017,-44.5132840419109,-44.4413638428516,-44.3695599632633,-44.2978722150994,-44.2263004106049,-44.1548443623261,-44.0835038831339,-44.0122787861882,-43.941168884943,-43.8701739931547,-43.7992939248821,-43.7285284944822,-43.6578775166202,-43.5873408062614,-43.5169181786767,-43.4466094494251,-43.3764144343705,-43.306332949671,-43.2363648117838,-43.1665098374585,-43.0967678437372,-43.0271386479627,-42.9576220677825,-42.8882179211297,-42.8189260262182,-42.7497462015759,-42.6806782660244,-42.6117220386665,-42.542877338902,-42.4741439864304,-42.4055218012317,-42.3370106035804,-42.2686102140505,-42.2003204534988,-42.1321411430691,-42.0640721041945,-41.9961131585979,-41.9282641282946,-41.8605248355837,-41.7928951030502,-41.725374753565,-41.6579636102829,-41.5906614966535,-41.5234682364129,-41.4563836535775,-41.3894075724482,-41.322539817615,-41.2557802139476,-41.1891285865839,-41.1225847609585,-41.0561485627882,-40.9898198180705,-40.9235983530879,-40.8574839944152,-40.7914765688952,-40.7255759036433,-40.6597818260609,-40.5940941638305,-40.5285127449115,-40.4630373975456,-40.3976679502501,-40.3324042318083,-40.2672460712912,-40.2021932980492,-40.1372457417036,-40.0724032321508,-40.0076655995667,-39.9430326743962,-39.8785042873536,-39.8140802694318,-39.7497604519021,-39.6855446663062,-39.6214327444594,-39.5574245184411,-39.4935198206047,-39.4297184835829,-39.3660203402769,-39.3024252238613,-39.2389329677666,-39.1755434057023,-39.1122563716476,-39.0490716998453,-38.9859892248034,-38.923008781302,-38.8601302043805,-38.7973533293579,-38.7346779918217,-38.6721040276247,-38.6096312728818,-38.5472595639644,-38.4849887375164,-38.4228186304439,-38.3607490799098,-38.2987799233479,-38.2369109984518,-38.1751421431821,-38.1134731957666,-38.0519039946883,-37.9904343786837,-37.9290641867604,-37.8677932581808,-37.8066214324687,-37.7455485493999,-37.6845744490071,-37.6236989715936,-37.5629219577274,-37.5022432482232,-37.4416626841582,-37.381180106864,-37.3207953579286,-37.260508279199,-37.2003187127691,-37.1402265009907,-37.0802314864854,-37.0203335121157,-36.9605324209988,-36.9008280565084,-36.8412202622686,-36.7817088821599,-36.7222937603071,-36.6629747410879,-36.6037516691448,-36.5446243893707,-36.4855927468974,-36.4266565871098,-36.3678157556489,-36.3090700983958,-36.2504194614866,-36.1918636913093,-36.1334026344997,-36.0750361379378,-36.016764048739,-35.9585862142812,-35.9005024821874,-35.8425127003321,-35.7846167168377,-35.7268143800636,-35.6691055386132,-35.6114900413342,-35.553967737328,-35.4965384759289,-35.4392021067175,-35.3819584795143,-35.3248074443948,-35.2677488516761,-35.2107825519029,-35.1539083958742,-35.0971262346144,-35.0404359194093,-34.9838373017842,-34.9273302334927,-34.8709145665244,-34.8145901531199,-34.7583568457572,-34.7022144971476,-34.6461629602411,-34.590202088222,-34.5343317345263,-34.4785517528232,-34.4228619970123,-34.3672623212226,-34.3117525798236,-34.2563326274219,-34.2010023188706,-34.1457615092453,-34.0906100538538,-34.0355478082463,-33.9805746282037,-33.925690369736,-33.8708948890887,-33.8161880427428,-33.7615696874168,-33.7070396800441,-33.6525978777947,-33.5982441380859,-33.5439783185525,-33.4898002770618,-33.4357098717098,-33.38170696082,-33.3277914029413,-33.2739630568528,-33.2202217815606,-33.1665674363116,-33.1129998805743,-33.0595189740406,-33.0061245766326,-32.9528165485034,-32.899594750023,-32.8464590417869,-32.7934092846185,-32.7404453395631,-32.687567067887,-32.634774331089,-32.5820669908987,-32.529444909262,-32.4769079483484,-32.4244559705519,-32.3720888384879,-32.3198064149972,-32.267608563129,-32.2154951461634,-32.1634660276061,-32.1115210711817,-32.059660140829,-32.0078831007057,-31.9561898152028,-31.9045801489194,-31.8530539666799,-31.8016111335162,-31.750251514681,-31.6989749756567,-31.647781382139,-31.5966706000331,-31.5456424954642,-31.4946969347796,-31.4438337845327,-31.3930529115022,-31.3423541826744,-31.2917374652473,-31.2412026266452,-31.1907495345077,-31.1403780566897,-31.0900880612539,-31.0398794164686,-30.9897519908222,-30.939705653019,-30.8897402719634,-30.839855716774,-30.7900518567909,-30.7403285615698,-30.6906857008822,-30.641123144719,-30.5916407632571,-30.542238426867,-30.492916006129,-30.443673371845,-30.3945103950394,-30.3454269469451,-30.296422898984,-30.2474981227987,-30.1986524902546,-30.1498858734102,-30.1011981445237,-30.0525891760582,-30.0040588406862,-29.9556070113042,-29.9072335609992,-29.8589383630556,-29.8107212909876,-29.7625822184917,-29.7145210194775,-29.66653756805,-29.6186317385274,-29.5708034054188,-29.5230524434416,-29.4753787275058,-29.4277821327388,-29.3802625344808,-29.3328198082734,-29.285453829837,-29.2381644750952,-29.1909516201875,-29.1438151414488,-29.096754915401,-29.0497708187771,-29.0028627285143,-28.9560305217503,-28.9092740758091,-28.8625932682126,-28.8159879766804,-28.7694580791432,-28.7230034537283,-28.6766239787312,-28.6303195326828,-28.5840899942949,-28.5379352424786,-28.4918551563372,-28.4458496151655,-28.3999184984375,-28.3540616858499,-28.3082790572865,-28.2625704928384,-28.2169358727755,-28.171375077552,-28.1258879878427,-28.0804744845091,-28.0351344485604,-27.989867761223,-27.9446743039416,-27.8995539583451,-27.8545066062436,-27.8095321296408,-27.7646304107196,-27.7198013318647,-27.6750447756294,-27.630360624779,-27.5857487622759,-27.5412090712672,-27.4967414350775,-27.4523457372337,-27.4080218614417,-27.3637696915952,-27.3195891117843,-27.2754800062746,-27.231442259526,-27.1874757561795,-27.1435803810825,-27.0997560192465,-27.0560025558698,-27.0123198763466,-26.9687078662535,-26.92516641134,-26.8816953975759,-26.838294711086,-26.7949642381784,-26.751703865334,-26.7085134792383,-26.6653929667507,-26.622342214936,-26.5793611110221,-26.536449542428,-26.4936073967369,-26.4508345617255,-26.4081309253378,-26.3654963757141,-26.3229308011848,-26.2804340902524,-26.2380061315871,-26.1956468140558,-26.153356026703,-26.1111336587439,-26.0689795995772,-26.0268937387668,-25.9848759660838,-25.9429261714559,-25.9010442449913,-25.8592300769658,-25.8174835578504,-25.7758045782939,-25.7341930291181,-25.6926488013335,-25.6511717861225,-25.6097618748344,-25.5684189589687,-25.5271429302387,-25.4859336805109,-25.4447911018256,-25.4037150864122,-25.3627055266724,-25.3217623151896,-25.280885344703,-25.240074508139,-25.1993296985991,-25.1586508093493,-25.118037733826,-25.0774903656253,-25.0370085985246,-24.996592326504,-24.9562414436956,-24.915955844386,-24.8757354230442,-24.8355800742999,-24.7954896929758,-24.7554641740567,-24.7155034127057,-24.6756073042402,-24.6357757441359,-24.5960086280418,-24.5563058517902,-24.5166673113748,-24.4770929029797,-24.4375825229448,-24.3981360677426,-24.35875343404,-24.3194345186848,-24.2801792186661,-24.2409874311514,-24.201859053473,-24.1627939831227,-24.1237921177598,-24.0848533552186,-24.0459775934888,-24.0071647307264,-23.9684146652659,-23.9297272955981,-23.891102520361,-23.8525402383884,-23.814040348661,-23.7756027503338,-23.7372273427116,-23.6989140252617,-23.6606626976244,-23.622473259604,-23.5843456111398,-23.5462796523631,-23.5082752835588,-23.4703324051514,-23.4324509177352,-23.3946307220813,-23.3568717191201,-23.3191738099349,-23.2815368957563,-23.2439608779935,-23.2064456582187,-23.168991138152,-23.1315972196653,-23.0942638047915,-23.0569907957514,-23.0197780948998,-22.9826256047458,-22.9455332279618,-22.9085008673867,-22.8715284259941,-22.8346158069307,-22.7977629134984,-22.7609696491542,-22.7242359175189,-22.687561622353,-22.6509466675831,-22.6143909572848,-22.5778943956992,-22.5414568872095,-22.5050783363555,-22.4687586478345,-22.4324977264876,-22.3962954773185,-22.3601518055113,-22.3240666163689,-22.2880398153565,-22.2520713081059,-22.2161610003903,-22.1803087981247,-22.144514607381,-22.1087783343949,-22.0730998855444,-22.0374791673664,-22.0019160865187,-21.9664105498361,-21.9309624643176,-21.8955717370968,-21.8602382754591,-21.8249619868386,-21.7897427788185,-21.7545805591502,-21.7194752357321,-21.6844267165842,-21.6494349098673,-21.6144997239029,-21.5796210671719,-21.5447988483029,-21.510032976076,-21.4753233594173,-21.4406699073812,-21.4060725291777,-21.3715311341675,-21.3370456318629,-21.3026159319191,-21.2682419441381,-21.2339235784621,-21.1996607450073,-21.1654533540145,-21.1313013158233,-21.0972045409569,-21.063162940108,-21.0291764241023,-20.9952449039006,-20.9613682906044,-20.9275464954427,-20.8937794298102,-20.8600670052433,-20.826409133418,-20.7928057261563,-20.7592566954338,-20.7257619533587,-20.6923214121809,-20.6589349842883,-20.625602582215,-20.5923241186499,-20.5590995063709,-20.5259286583434,-20.4928114876786,-20.4597479076082,-20.4267378315146,-20.3937811729276,-20.3608778454799,-20.3280277629513,-20.295230839301,-20.2624869886076,-20.2297961250846,-20.1971581630781,-20.1645730170811,-20.1320406017186,-20.0995608317618,-20.0671336221146,-20.0347588878144,-20.0024365440376,-19.9701665061046,-19.9379486894731,-19.9057830097649,-19.8736693827014,-19.8416077241364,-19.8095979500591,-19.7776399766003,-19.7457337200404,-19.7138790968025,-19.6820760234248,-19.6503244165688,-19.6186241930426,-19.5869752697903,-19.5553775638894,-19.5238309925608,-19.4923354731626,-19.4608909231863,-19.4294972602406,-19.3981544020605,-19.3668622665508,-19.3356207717292,-19.3044298357406,-19.2732893768667,-19.2421993135247,-19.2111595642458,-19.1801700476957,-19.1492306826657,-19.1183413881089,-19.0875020831,-19.0567126868327,-19.0259731186543,-18.9952832980432,-18.9646431445865,-18.9340525779804,-18.9035115180796,-18.8730198848702,-18.8425775984606,-18.812184579084,-18.781840747108,-18.75154602302,-18.7213003274489,-18.6911035811545,-18.6609557050128,-18.6308566200642,-18.6008062474504,-18.5708045084138,-18.5408513243555,-18.5109466168052,-18.4810903074086,-18.4512823179312,-18.4215225702688,-18.3918109864491,-18.3621474886229,-18.3325319990723,-18.3029644402087,-18.2734447345585,-18.2439728047644,-18.2145485736074,-18.1851719639888,-18.1558428989421,-18.1265613016181,-18.0973270952922,-18.068140203373,-18.0390005493919,-18.0099080570018,-17.9808626499819,-17.9518642522282,-17.922912787765,-17.8940081807319,-17.8651503553845,-17.83633923609,-17.8075747473596,-17.7788568138536,-17.7501853603315,-17.7215603116451,-17.6929815927955,-17.664449128887,-17.6359628451665,-17.6075226670059,-17.5791285198951,-17.550780329431,-17.5224780213407,-17.4942215214613,-17.4660107557597,-17.4378456503155,-17.4097261313457,-17.3816521251712,-17.3536235582324,-17.3256403570705,-17.2977024483508,-17.269809758875,-17.241962215553,-17.2141597454321,-17.1864022756752,-17.1586897335343,-17.1310220463952,-17.1033991417671,-17.0758209472726,-17.048287390641,-17.0207983997289,-16.9933539025133,-16.9659538270852,-16.9385981016432,-16.9112866545096,-16.8840194141334,-16.8567963090527,-16.8296172679253,-16.8024822195355,-16.7753910927799,-16.7483438166713,-16.7213403203283,-16.6943805330033,-16.6674643840541,-16.6405918029542,-16.6137627192845,-16.5869770627388,-16.5602347631303,-16.5335357503713,-16.5068799545123,-16.4802673057204,-16.453697734276,-16.4271711705454,-16.4006875450134,-16.3742467882719,-16.3478488310446,-16.3214936041729,-16.2951810385834,-16.2689110653234,-16.2426836155368,-16.2164986205048,-16.1903560116252,-16.1642557204037,-16.1381976784354,-16.1121818174328,-16.0862080692387,-16.0602763657925,-16.0343866391442,-16.008538821458,-15.9827328450076,-15.9569686421631,-15.9312461454119,-15.9055652873547,-15.8799260006772,-15.8543282182025,-15.8287718728517,-15.8032568976579,-15.7777832257692,-15.75235079043,-15.7269595249886,-15.7016093628825,-15.6763002376794,-15.651032083077,-15.6258048328819,-15.6006184209719,-15.57547278133,-15.5503678480714,-15.5253035554127,-15.5002798376894,-15.4752966293121,-15.4503538648215,-15.4254514788412,-15.4005894061004,-15.3757675814583,-15.350985939891,-15.3262444164463,-15.3015429462796,-15.2768814646619,-15.2522599069635,-15.2276782086607,-15.2031363053489,-15.1786341327088,-15.154171626529,-15.1297487226936,-15.1053653571994,-15.0810214661429,-15.0567169857353,-15.0324518522913,-15.008226002226,-14.9840393720549,-14.9598918983808,-14.9357835179158,-14.9117141674945,-14.8876837840378,-14.8636923045715,-14.8397396662125,-14.8158258061782,-14.7919506618147,-14.7681141705828,-14.744316270011,-14.720556897719,-14.6968359914411,-14.6731534890126,-14.6495093283637,-14.6259034475386,-14.6023357846706,-14.5788062779973,-14.5553148658453,-14.5318614866694,-14.5084460790032,-14.4850685814787,-14.4617289328351,-14.4384270719029,-14.4151629375954,-14.3919364689585,-14.3687476051179,-14.3455962852861,-14.3224824488056,-14.2994060351212,-14.2763669837437,-14.2533652342929,-14.2304007264828,-14.2074734001277,-14.1845831951437,-14.1617300515474,-14.1389139094489,-14.1161347090418,-14.093392390637,-14.0706868946292,-14.048018161508,-14.025386131873,-14.0027907464136,-13.9802319459043,-13.9577096712395,-13.9352238633825,-13.9127744633989,-13.8903614124385,-13.8679846517531,-13.8456441226912,-13.8233397667237,-13.8010715253972,-13.7788393403351,-13.7566431532606,-13.7344829060163,-13.7123585405241,-13.6902699987839,-13.6682172228927,-13.6462001550607,-13.6242187375972,-13.6022729128975,-13.5803626234314,-13.5584878117758,-13.5366484205827,-13.5148443926298,-13.4930756707809,-13.4713421979838,-13.4496439172512,-13.4279807717148,-13.4063527046208,-13.3847596592884,-13.363201579115,-13.3416784076057,-13.3201900883452,-13.298736565012,-13.2773177813707,-13.2559336812828,-13.2345842087002,-13.2132693076757,-13.1919889223402,-13.1707429969197,-13.1495314757229,-13.1283543031563,-13.1072114237211,-13.0861027820042,-13.0650283226737,-13.0439879904801,-13.022981730264,-13.0020094869818,-12.9810712056732,-12.9601668314502,-12.9392963095051,-12.9184595851368,-12.8976566037226,-12.8768873107513,-12.8561516517942,-12.8354495724904,-12.8147810185813,-12.7941459358728,-12.7735442702953,-12.7529759678517,-12.7324409746304,-12.7119392368148,-12.691470700676,-12.6710353125543,-12.6506330188827,-12.6302637661855,-12.6099275010749,-12.5896241702396,-12.5693537204679,-12.5491160986295,-12.5289112516778,-12.508739126651,-12.4885996706721,-12.4684928309423,-12.4484185547478,-12.4283767894737,-12.4083674825842,-12.3883905816499,-12.3684460343056,-12.3485337882726,-12.3286537913583,-12.3088059914326,-12.2889903364887,-12.2692067746065,-12.2494552539076,-12.2297357226152,-12.2100481290412,-12.1903924215762,-12.1707685487067,-12.1511764589902,-12.1316161010696,-12.1120874236645,-12.0925903755808,-12.0731249057114,-12.0536909630282,-12.0342884965966,-12.0149174555426,-11.9955777890804,-11.9762694465375,-11.9569923772828,-11.9377465307856,-11.9185318566065,-11.8993483043856,-11.8801958238354,-11.8610743647295,-11.8419838769363,-11.8229243104297,-11.8038956152452,-11.7848977415007,-11.7659306393981,-11.7469942592174,-11.7280885513172,-11.7092134661455,-11.6903689542132,-11.6715549661045,-11.6527714525141,-11.6340183641987,-11.615295651981,-11.5966032667942,-11.5779411596492,-11.5593092816118,-11.540707583821,-11.522136017524,-11.5035945340404,-11.4850830847668,-11.4666016211896,-11.4481500948709,-11.4297284574209,-11.4113366605345,-11.3929746560016,-11.3746423956808,-11.3563398315173,-11.3380669155187,-11.3198235997888,-11.301609836508,-11.2834255779273,-11.2652707763702,-11.2471453842489,-11.229049354057,-11.2109826383409,-11.1929451897365,-11.1749369609663,-11.1569579048033,-11.1390079741046,-11.1210871218331,-11.1031953009887,-11.085332464667,-11.067498566055,-11.0496935583976,-11.0319173950146,-11.0141700292951,-10.9964514147186,-10.9787615048221,-10.9611002532195,-10.9434676136172,-10.9258635398059,-10.908287985598,-10.8907409049157,-10.8732222517739,-10.855731980255,-10.8382700444978,-10.82083639873,-10.8034309972386,-10.7860537943856,-10.76870474461,-10.7513838024288,-10.7340909224141,-10.716826059234,-10.6995891676529,-10.6823802024673,-10.6651991185262,-10.6480458707795,-10.6309204142632,-10.6138227040873,-10.59675269543,-10.5797103435405,-10.5626956037123,-10.5457084313445,-10.528748781918,-10.5118166109555,-10.4949118740645,-10.4780345269063,-10.4611845252242,-10.4443618248356,-10.4275663816468,-10.4107981516066,-10.3940570907489,-10.377343155206,-10.3606563011417,-10.3439964848267,-10.3273636625726,-10.31075779074,-10.2941788258075,-10.2776267242983,-10.2611014428154,-10.2446029380355,-10.2281311666986,-10.2116860856075,-10.1952676516532,-10.1788758217885,-10.1625105530436,-10.1461718025003,-10.1298595273103,-10.1135736846836,-10.0973142319263,-10.0810811264079,-10.0648743255691,-10.0486937869176,-10.0325394680199,-10.016411326526,-10.0003093201351,-9.98423340661721,-9.9681835438361,-9.95215968969398,-9.93616180216733,-9.92018983930882,-9.90424375924849,-9.88832352016269,-9.87242908029398,-9.85656039796521,-9.8407174315843,-9.82490013961627,-9.80910848058588,-9.79334241305708,-9.77760189569356,-9.76188688722693,-9.74619734643158,-9.73053323216512,-9.71489450336876,-9.69928111902271,-9.68369303818612,-9.66813021997925,-9.65259262359528,-9.63708020827334,-9.62159293335053,-9.60613075822358,-9.59069364232133,-9.57528154516178,-9.55989442633265,-9.544532245487,-9.5291949623416,-9.51388253666716,-9.49859492833012,-9.48333209722943,-9.46809400335495,-9.45288060674535,-9.43769186750008,-9.42252774580303,-9.40738820188521,-9.39227319603894,-9.37718268859596,-9.36211663998959,-9.34707501071518,-9.33205776132493,-9.31706485243066,-9.30209624470636,-9.28715189889363,-9.27223177580563,-9.25733583631084,-9.24246404137318,-9.22761635198756,-9.2127927292107,-9.19799313417483,-9.18321752806466,-9.16846587211841,-9.15373812765563,-9.13903425603679,-9.12435421870067,-9.10969797714082,-9.09506549292846,-9.08045672769672,-9.06587164312307,-9.05131020095235,-9.03677236299087,-9.02225809110301,-9.00776734723157,-8.9933000933673,-8.97885629156893,-8.96443590396865,-8.95003889273129,-8.93566522009872,-8.9213148483732,-8.9069877399195,-8.89268385716925,-8.87840316259376,-8.86414561873599,-8.84991118819782,-8.83569983363401,-8.82151151777867,-8.80734620342811,-8.79320385342913,-8.77908443067337,-8.76498789812763,-8.75091421882934,-8.73686335587517,-8.72283527240367,-8.70882993163605,-8.69484729683156,-8.68088733131665,-8.66694999847125,-8.6530352617403,-8.63914308461775,-8.62527343067612,-8.61142626354756,-8.59760154691662,-8.58379924450716,-8.57001932010294,-8.55626173756088,-8.54252646079878,-8.52881345377712,-8.51512268052466,-8.50145410513844,-8.48780769176875,-8.47418340460325,-8.46058120791136,-8.44700106602952,-8.4334429433198,-8.41990680422375,-8.40639261324653,-8.39290033494664,-8.37942993391772,-8.36598137481282,-8.35255462233567,-8.33914964127067,-8.32576639645962,-8.31240485280955,-8.29906497528095,-8.28574672887533,-8.27245007865977,-8.2591749897381,-8.24592142727364,-8.23268935650079,-8.21947874271205,-8.20628955126096,-8.19312174754799,-8.17997529703736,-8.16685016523954,-8.1537463177234,-8.1406637201095,-8.1276023380756,-8.11456213733752,-8.10154308368356,-8.08854514298146,-8.07556828114643,-8.0626124641388,-8.04967765795811,-8.03676382865691,-8.02387094236496,-8.01099896528445,-7.99814786363557,-7.98531760368261,-7.97250815177261,-7.95971947432102,-7.94695153778254,-7.93420430865085,-7.92147775348455,-7.90877183888394,-7.89608653151332,-7.88342179810525,-7.8707776054186,-7.85815392026564,-7.84555070953609,-7.83296794018833,-7.82040557921981,-7.80786359363165,-7.7953419505299,-7.78284061707239,-7.77035956045114,-7.75789874792214,-7.74545814678517,-7.73303772440148,-7.72063744818943,-7.7082572856072,-7.69589720417166,-7.68355717145394,-7.67123715509263,-7.65893712278308,-7.64665704223664,-7.63439688122276,-7.62215660758084,-7.60993618918927,-7.59773559397384,-7.58555478993829,-7.57339374513792,-7.56125242765136,-7.54913080560588,-7.53702884719914,-7.52494652066826,-7.51288379432065,-7.50084063650628,-7.48881701563312,-7.47681290014844,-7.46482825854647,-7.45286305937502,-7.44091727124433,-7.42899086281712,-7.41708380278488,-7.4051960598992,-7.39332760298222,-7.38147840088913,-7.36964842251946,-7.35783763682914,-7.34604601284167,-7.33427351961152,-7.32252012623189,-7.31078580185741,-7.29907051571272,-7.28737423705634,-7.27569693518731,-7.26403857947428,-7.25239913932197,-7.24077858417391,-7.22917688354144,-7.21759400697006,-7.20602992406122,-7.19448460447679,-7.18295801791648,-7.17145013412492,-7.15996092291901,-7.14849035414233,-7.13703839769426,-7.12560502353346,-7.11419020166677,-7.10279390212726,-7.09141609499341,-7.08005675039515,-7.06871583853058,-7.05739332963685,-7.0460891939926,-7.034803401927,-7.02353592383846,-7.01228673015972,-7.00105579135854,-6.98984307797591,-6.97864856059267,-6.96747220982096,-6.95631399631775,-6.94517389079005,-6.93405186398933,-6.92294788671364,-6.91186192982148,-6.90079396424787,-6.88974396094662,-6.87871189091366,-6.86769772519945,-6.85670143487337,-6.84572299106751,-6.83476236497707,-6.82381952782424,-6.81289445090748,-6.80198710555773,-6.79109746315262,-6.78022549508039,-6.76937117280968,-6.75853446788137,-6.74771535185361,-6.73691379632088,-6.72612977291631,-6.71536325332175,-6.7046142092924,-6.69388261261497,-6.68316843510877,-6.67247164865674,-6.66179222518384,-6.65113013666407,-6.64048535511755,-6.6298578526133,-6.61924760125604,-6.60865457318639,-6.5980787405689,-6.58752007564529,-6.5769785507047,-6.56645413807256,-6.55594681011513,-6.54545653925822,-6.53498329795973,-6.52452705873472,-6.51408779412622,-6.50366547672403,-6.49326007918249,-6.48287157419654,-6.47249993448849,-6.46214513282849,-6.45180714204841,-6.44148593499359,-6.43118148458134,-6.42089376375076,-6.41062274549452,-6.40036840284677,-6.39013070889966,-6.37990963678207,-6.3697051596546,-6.35951725071215,-6.34934588320477,-6.33919103044747,-6.3290526657605,-6.31893076252864,-6.30882529419798,-6.2987362342377,-6.28866355616216,-6.27860723351661,-6.26856723988871,-6.25854354891608,-6.24853613429004,-6.23854496973467,-6.22857002902126,-6.21861128594183,-6.20866871435332,-6.19874228815187,-6.18883198128334,-6.17893776773587,-6.16905962153373,-6.15919751674061,-6.14935142745882,-6.13952132783614,-6.12970719206273,-6.11990899437206,-6.11012670904295,-6.10036031037068,-6.09060977270238,-6.08087507045658,-6.07115617808233,-6.0614530700454,-6.05176572086937,-6.04209410510361,-6.03243819735234,-6.02279797227507,-6.01317340455789,-6.00356446891467,-5.99397114012095,-5.9843933929924,-5.97483120238113,-5.96528454318006,-5.95575339031092,-5.94623771873197,-5.9367375034664,-5.92725271957501,-5.91778334215624,-5.90832934634422,-5.8988907073016,-5.88946740024796,-5.88005940042597,-5.8706666831345,-5.8612892237089,-5.85192699750938,-5.84257997995522,-5.8332481465056,-5.82393147263923,-5.81462993387611,-5.80534350581146,-5.79607216406052,-5.78681588428514,-5.77757464218201,-5.76834841347548,-5.75913717391609,-5.74994089931586,-5.74075956553933,-5.73159314847094,-5.72244162404142,-5.71330496821199,-5.70418315697605,-5.6950761663745,-5.68598397249634,-5.67690655145385,-5.66784387941227,-5.65879593257668,-5.64976268717131,-5.64074411948121,-5.63174020580982,-5.62275092249181,-5.61377624592824,-5.6048161525379,-5.59587061879927,-5.58693962120921,-5.57802313632229,-5.56912114073235,-5.56023361102794,-5.5513605238763,-5.54250185597396,-5.53365758404071,-5.52482768484085,-5.51601213517308,-5.50721091188276,-5.49842399185168,-5.48965135201788,-5.48089296933871,-5.47214882079419,-5.46341888340127,-5.45470313423823,-5.44600155041666,-5.43731410908416,-5.42864078740509,-5.41998156257774,-5.41133641186448,-5.40270531254972,-5.39408824197329,-5.38548517747343,-5.37689609645056,-5.36832097635994,-5.35975979467863,-5.35121252891403,-5.34267915659147,-5.33415965530429,-5.32565400267577,-5.31716217636539,-5.30868415405353,-5.30021991346272,-5.2917694323588,-5.28333268854629,-5.27490965984966,-5.26650032413693,-5.25810465932281,-5.24972264334998,-5.24135425418936,-5.23299946986273,-5.22465826839945,-5.21633062789567,-5.20801652647313,-5.19971594227048,-5.19142885348008,-5.1831552383447,-5.17489507511985,-5.16664834209522,-5.15841501760493,-5.1501950799902,-5.14198850765109,-5.13379527903801,-5.12561537263413,-5.11744876695668,-5.10929544054233,-5.10115537196777,-5.09302853983215,-5.08491492277474,-5.07681449947797,-5.06872724865017,-5.0606531490411,-5.05259217942677,-5.04454431863487,-5.0365095455248,-5.0284878389774,-5.02047917790951,-5.01248354129644,-5.00450090811822,-4.99653125737867,-4.98857456812591,-4.98063081945073,-4.97269999048056,-4.96478206035096,-4.9568770082689,-4.94898481345623,-4.94110545518207,-4.93323891276836,-4.92538516553866,-4.91754419282807,-4.90971597401855,-4.90190048853757,-4.89409771583942,-4.88630763542769,-4.87853022681308,-4.87076546955319,-4.86301334324209,-4.85527382752953,-4.84754690206788,-4.83983254653554,-4.83213074065073,-4.82444146419212,-4.81676469693674,-4.8091004186921,-4.80144860931877,-4.79380924872058,-4.78618231679564,-4.77856779349179,-4.77096565879994,-4.76337589271306,-4.75579847528188,-4.7482333866098,-4.74068060681527,-4.73314011602743,-4.72561189444598,-4.71809592227157,-4.71059217973977,-4.70310064712644,-4.69562130473502,-4.68815413290334,-4.68069911200667,-4.67325622244158,-4.66582544463526,-4.65840675907477,-4.65100014623297,-4.64360558663795,-4.63622306085413,-4.62885254946768,-4.62149403312113,-4.61414749246075,-4.60681290816393,-4.59949026094462,-4.59217953155638,-4.5848807007774,-4.57759374940602,-4.57031865828547,-4.56305540828389,-4.55580398029908,-4.5485643552793,-4.54133651418344,-4.53412043801472,-4.52691610780355,-4.51972350461377,-4.51254260953313,-4.50537340366988,-4.49821586817128,-4.49106998421431,-4.48393573299945,-4.47681309576542,-4.46970205378448,-4.46260258835716,-4.45551468083823,-4.44843831257709,-4.44137346494883,-4.43432011937688,-4.42727825731907,-4.42024786025985,-4.41322890970256,-4.4062213871889,-4.39922527429163,-4.39224055263085,-4.38526720382382,-4.37830520951213,-4.37135455139013,-4.36441521118683,-4.35748717063533,-4.35057041152881,-4.34366491566795,-4.33677066489521,-4.32988764108791,-4.32301582615501,-4.31615520201193,-4.30930575060722,-4.30246745392697,-4.29564029397011,-4.2888242527978,-4.28201931248744,-4.27522545514727,-4.26844266290023,-4.26167091788129,-4.25491020228542,-4.24816049834129,-4.24142178830071,-4.23469405442482,-4.22797727900364,-4.22127144437897,-4.21457653291921,-4.20789252700864,-4.2012194090676,-4.19455716153136,-4.1879057668717,-4.18126520759172,-4.17463546623111,-4.16801652534207,-4.16140836750627,-4.15481097534802,-4.14822433152252,-4.14164841869368,-4.13508321955443,-4.12852871684216,-4.12198489330123,-4.11545173170466,-4.10892921487221,-4.10241732566408,-4.09591604694814,-4.08942536162228,-4.08294525257761,-4.07647570276997,-4.07001669518465,-4.06356821283537,-4.05713023874736,-4.05070275595949,-4.04428574755338,-4.03787919665665,-4.03148308641511,-4.0250974000085,-4.0187221206209,-4.01235723147198,-4.00600271582725,-3.99965855695436,-3.99332473815777,-3.98700124278076,-3.98068805417103,-3.97438515571403,-3.96809253083732,-3.96181016298038,-3.95553803559916,-3.94927613220104,-3.9430244363021,-3.9367829314471,-3.93055160122502,-3.92433042922962,-3.91811939908255,-3.9119184944365,-3.90572769896799,-3.89954699636236,-3.89337637034712,-3.88721580469062,-3.88106528317995,-3.87492478961946,-3.8687943078563,-3.86267382175463,-3.85656331519709,-3.85046277210065,-3.84437217640759,-3.83829151208141,-3.8322207631339,-3.82615991358363,-3.82010894747467,-3.81406784887069,-3.80803660186708,-3.80201519059146,-3.79600359917605,-3.79000181181926,-3.78400981272066,-3.77802758610645,-3.77205511624507,-3.76609238740108,-3.76013938387261,-3.75419608999117,-3.74826249011531,-3.74233856861708,-3.73642430989622,-3.73051969836778,-3.7246247184667,-3.71873935468894,-3.71286359153304,-3.7069974135326,-3.70114080525002,-3.69529375126629,-3.6894562361839,-3.68362824462431,-3.67780976123966,-3.6720007707131,-3.66620125775932,-3.66041120708634,-3.65463060344101,-3.64885943160902,-3.64309767641728,-3.63734532267712,-3.63160235523685,-3.62586875898289,-3.62014451881832,-3.61442961966593,-3.60872404646828,-3.60302778420755,-3.59734081787526,-3.59166313249493,-3.58599471312793,-3.58033554484966,-3.57468561275849,-3.56904490197185,-3.56341339761984,-3.55779108485216,-3.55217794884968,-3.54657397483718,-3.54097914806413,-3.53539345379774,-3.52981687733259,-3.52424940397849,-3.51869101905818,-3.51314170792883,-3.5076014559709,-3.50207024859662,-3.49654807122086,-3.49103490931329,-3.48553074835752,-3.4800355738336,-3.47454937126442,-3.46907212620245,-3.46360382420656,-3.45814445086589,-3.45269399180191,-3.44725243266547,-3.4418197591291,-3.43639595688095,-3.43098101163484,-3.42557490911534,-3.42017763508488,-3.41478917533253,-3.40940951566015,-3.4040386418825,-3.39867653985254,-3.39332319544586,-3.38797859456639,-3.38264272313562,-3.37731556707352,-3.37199711232978,-3.36668734488753,-3.36138625075518,-3.35609381597212,-3.35081002658881,-3.34553486867728,-3.34026832833477,-3.33501039167908,-3.3297610448588,-3.32452027404177,-3.31928806543449,-3.31406440524794,-3.30884927971305,-3.30364267507781,-3.29844457761276,-3.29325497362794,-3.28807384943826,-3.28290119138673,-3.2777369858559,-3.27258121921713,-3.26743387789466,-3.26229494831568,-3.25716441693837,-3.25204227021759,-3.24692849466609,-3.24182307681719,-3.23672600319586,-3.23163726037125,-3.22655683491261,-3.22148471343521,-3.21642088256175,-3.21136532895594,-3.20631803928375,-3.20127900021921,-3.19624819848912,-3.1912256208443,-3.18621125405293,-3.18120508489049,-3.17620710014027,-3.17121728663954,-3.16623563124198,-3.16126212080354,-3.15629674220035,-3.15133948232307,-3.14639032811963,-3.14144926655349,-3.13651628459378,-3.1315913692242,-3.12667450745229,-3.12176568630361,-3.11686489283289,-3.11197211412734,-3.10708733728487,-3.1022105494288,-3.09734173769445,-3.0924808892443,-3.08762799124691,-3.08278303090568,-3.07794599545116,-3.07311687211086,-3.06829564814229,-3.06348231082125,-3.05867684747044,-3.05387924541939,-3.04908949202164,-3.04430757463338,-3.03953348064651,-3.03476719747608,-3.03000871252941,-3.02525801325525,-3.0205150871278,-3.01577992163318,-3.01105250428286,-3.00633282260613,-3.00162086413263,-2.99691661644148,-2.9922200671276,-2.9875312038075,-2.98285001411685,-2.97817648569983,-2.97351060621873,-2.96885236337739,-2.96420174488878,-2.95955873847262,-2.95492333189041,-2.95029551290986,-2.94567526929857,-2.94106258886387,-2.93645745944835,-2.93185986889472,-2.92726980506396,-2.92268725585996,-2.91811220919298,-2.91354465298423,-2.90898457518232,-2.9044319637458,-2.89988680665138,-2.89534909190552,-2.89081880754299,-2.88629594159664,-2.88178048212003,-2.87727241720457,-2.872771734949,-2.86827842347911,-2.86379247094999,-2.85931386552567,-2.85484259537936,-2.85037864870344,-2.84592201369428,-2.8414726786063,-2.83703063170101,-2.83259586123052,-2.8281683554952,-2.8237481028151,-2.81933509153015,-2.81492930998987,-2.81053074653431,-2.8061393895676,-2.80175522750101,-2.79737824875974,-2.79300844177987,-2.78864579502632,-2.78429029698693,-2.77994193616332,-2.77560070107741,-2.77126658024713,-2.76693956224137,-2.76261963563772,-2.75830678903573,-2.75400101104583,-2.74970229028159,-2.74541061538511,-2.74112597505115,-2.73684835797882,-2.73257775286024,-2.72831414840928,-2.7240575333489,-2.7198078964457,-2.71556522648702,-2.71132951226077,-2.70710074257278,-2.70287890624216,-2.69866399214221,-2.69445598913897,-2.69025488610634,-2.68606067194573,-2.68187333557981,-2.67769286595272,-2.6735192520223,-2.66935248275081,-2.66519254714524,-2.66103943420425,-2.6568931329596,-2.65275363245585,-2.64862092174932,-2.64449498994853,-2.64037582614344,-2.63626341944173,-2.63215775897979,-2.62805883390399,-2.62396663338428,-2.61988114662092,-2.61580236281819,-2.61173027119817,-2.60766486098061,-2.60360612142873,-2.59955404180295,-2.59550861140556,-2.59146981955449,-2.5874376555658,-2.58341210878048,-2.57939316856841,-2.57538082431572,-2.5713750654216,-2.56737588128412,-2.56338326134365,-2.55939719503237,-2.55541767181486,-2.55144468116522,-2.54747821257944,-2.54351825558351,-2.53956479971998,-2.53561783453048,-2.53167734958067,-2.52774333444596,-2.52381577872912,-2.51989467203548,-2.5159800040236,-2.51207176434967,-2.50816994268801,-2.50427452872488,-2.50038551215198,-2.49650288266476,-2.49262662999266,-2.48875674390998,-2.48489321416744,-2.48103603054793,-2.47718518286581,-2.47334066093448,-2.46950245459114,-2.46567055368466,-2.46184494806865,-2.45802562762932,-2.45421258227408,-2.45040580192066,-2.44660527649141,-2.44281099594311,-2.43902295023323,-2.43524112934982,-2.43146552328283,-2.42769612205236,-2.42393291567665,-2.42017589422143,-2.4164250477501,-2.41268036632257,-2.4089418400192,-2.40520945895743,-2.40148321328186,-2.39776309312873,-2.39404908864177,-2.39034119000231,-2.38663938740828,-2.38294367105898,-2.37925403118024,-2.37557045800286,-2.37189294178951,-2.36822147281929,-2.36455604136354,-2.36089663773224,-2.35724325222642,-2.35359587516576,-2.3499544969081,-2.34631910782205,-2.34268969829921,-2.33906625873277,-2.33544877951665,-2.33183725106337,-2.32823166379907,-2.32463200817488,-2.32103827468485,-2.31745045384383,-2.3138685361413,-2.31029251210122,-2.30672237225775,-2.30315810717299,-2.2995997074075,-2.29604716353341,-2.29250046613474,-2.2889596058169,-2.28542457321898,-2.28189535897637,-2.27837195372518,-2.27485434814631,-2.27134253292507,-2.26783649875708,-2.26433623635716,-2.26084173646797,-2.25735298983061,-2.253869987205,-2.25039271942375,-2.24692117723294,-2.24345535142814,-2.23999523284934,-2.23654081233879,-2.2330920807664,-2.22964902899417,-2.22621164787613,-2.22277992828451,-2.21935386115159,-2.21593343741957,-2.21251864800845,-2.2091094838551,-2.20570593594157,-2.20230799525947,-2.19891565280828,-2.19552889959539,-2.19214772663422,-2.1887721249909,-2.18540208573962,-2.18203759992958,-2.17867865867183,-2.1753252530574,-2.17197737419533,-2.16863501320465,-2.16529816123908,-2.16196680942554,-2.15864094893303,-2.15532057096777,-2.1520056667216,-2.14869622741416,-2.145392244276,-2.14209370854061,-2.13880061148186,-2.13551294436586,-2.13223069848412,-2.12895386514304,-2.12568243565806,-2.12241640134278,-2.11915575352883,-2.11590048359495,-2.11265058292194,-2.10940604286947,-2.10616685478579,-2.10293301009649,-2.09970450024583,-2.09648131668299,-2.09326345087602,-2.09005089430025,-2.08684363842335,-2.08364167473546,-2.08044499476456,-2.07725359001293,-2.07406745201967,-2.07088657233999,-2.06771094252121,-2.06454055417752,-2.06137539887672,-2.05821546819509,-2.05506075377844,-2.05191124727066,-2.04876694029412,-2.04562782451492,-2.04249389161266,-2.03936513325027,-2.03624154112919,-2.03312310696462,-2.03000982250211,-2.0269016794608,-2.02379866962818,-2.02070078475783,-2.01760801662862,-2.01452035702323,-2.01143779777329,-2.00836033068474,-2.00528794754315,-2.00222064024801,-1.99915840065687,-1.99610122064493,-1.99304909208105,-1.99000200687685,-1.98695995695884,-1.98392293423376,-1.9808909306288,-1.97786393809717,-1.97484194862278,-1.9718249541966,-1.9688129467912,-1.96580591840879,-1.96280386108945,-1.95980676687511,-1.9568146277668,-1.95382743581209,-1.95084518310281,-1.94786786173873,-1.94489546379701,-1.94192798137767,-1.93896540659363,-1.93600773156124,-1.9330549484385,-1.93010704937149,-1.92716402653134,-1.92422587212805,-1.92129257837695,-1.91836413746174,-1.91544054157414,-1.91252178297954,-1.90960785393723,-1.90669874672065,-1.90379445362941,-1.90089496689806,-1.89800027881485,-1.89511038168846,-1.89222526782466,-1.88934492956222,-1.88646935926632,-1.88359854927436,-1.88073249197233,-1.87787117974939,-1.87501460500451,-1.87216276018681,-1.86931563765989,-1.8664732298464,-1.86363552919514,-1.86080252815397,-1.85797421921145,-1.85515059485012,-1.85233164758721,-1.84951736991948,-1.8467077543499,-1.84390279341469,-1.84110247967462,-1.83830680570533,-1.83551576404387,-1.83272934724683,-1.82994754790182,-1.82717035865728,-1.82439777214242,-1.82162978101582,-1.81886637787573,-1.81610755535085,-1.81335330609117,-1.81060362278643,-1.80785849815666,-1.80511792488366,-1.80238189563528,-1.79965040315446,-1.79692344019021,-1.79420099948499,-1.7914830738006,-1.78876965588756,-1.78606073855123,-1.78335631458074,-1.78065637677038,-1.77796091793228,-1.77526993090426,-1.77258340852735,-1.7699013436786,-1.76722372920456,-1.76455055796599,-1.76188182284975,-1.75921751677919,-1.7565576326477,-1.75390216338138,-1.75125110190377,-1.7486044411371,-1.74596217405006,-1.74332429362742,-1.7406907928253,-1.73806166462682,-1.73543690204503,-1.73281649809086,-1.7302004457861,-1.72758873817969,-1.72498136830314,-1.72237832922219,-1.71977961400944,-1.71718521574136,-1.71459512750038,-1.71200934237825,-1.7094278535166,-1.70685065403402,-1.70427773707063,-1.70170909576825,-1.69914472331101,-1.6965846128393,-1.69402875752427,-1.69147715055993,-1.68892978516455,-1.68638665454364,-1.68384775193333,-1.68131307054969,-1.67878260363057,-1.67625634447665,-1.67373428632107,-1.67121642244583,-1.66870274613373,-1.66619325070123,-1.6636879294486,-1.66118677570384,-1.65868978281949,-1.6561969441298,-1.65370825298861,-1.65122370276794,-1.64874328684638,-1.64626699859825,-1.64379483141979,-1.64132677870695,-1.63886283387709,-1.63640299036171,-1.63394724163948,-1.6314955811465,-1.62904800231502,-1.62660449863214,-1.62416506357746,-1.62172969065407,-1.61929837338883,-1.6168711052788,-1.61444787986686,-1.61202869067788,-1.60961353124584,-1.60720239513593,-1.60479527591803,-1.60239216714796,-1.59999306243366,-1.59759795537438,-1.59520683958431,-1.59281970869628,-1.59043655635202,-1.58805737618169,-1.58568216182733,-1.58331090694995,-1.58094360519283,-1.57858025023481,-1.57622083580807,-1.57386535559192,-1.57151380327049,-1.5691661725877,-1.56682245728304,-1.56448265111376,-1.56214674783596,-1.55981474118676,-1.55748662499254,-1.55516239300558,-1.55284203900342,-1.5505255568073,-1.5482129402464,-1.54590418314184,-1.54359927931743,-1.54129822260948,-1.53900100686694,-1.53670762596177,-1.53441807375111,-1.532132344128,-1.52985043098031,-1.52757232818975,-1.52529802968435,-1.52302752940691,-1.52076082129419,-1.51849789930446,-1.51623875738829,-1.51398338948948,-1.5117317895942,-1.50948395168838,-1.50723986976011,-1.50499953781002,-1.50276294985312,-1.50053009992213,-1.49830098203646,-1.49607559024625,-1.49385391858614,-1.4916359611104,-1.48942171188328,-1.48721116496965,-1.48500431447337,-1.48280115449339,-1.48060167913237,-1.47840588254203,-1.47621375883061,-1.47402530209825,-1.47184050650307,-1.4696593662097,-1.46748187538588,-1.46530802821356,-1.46313781887919,-1.46097124157616,-1.45880829049717,-1.45664895987578,-1.4544932439496,-1.45234113697011,-1.45019263316423,-1.44804772676591,-1.44590641203086,-1.44376868321838,-1.44163453462548,-1.43950396053194,-1.43737695523941,-1.43525351304852,-1.43313362823153,-1.43101729513803,-1.4289045080872,-1.42679526144783,-1.4246895496081,-1.4225873669349,-1.42048870776996,-1.41839356649271,-1.41630193748878,-1.41421381517163,-1.41212919392471,-1.41004806816393,-1.40797043230604,-1.405896280792,-1.40382560806582,-1.40175840854522,-1.39969467673284,-1.39763440711774,-1.39557759417722,-1.39352423240295,-1.39147431628304,-1.38942784030914,-1.38738479899409,-1.38534518689123,-1.38330899852793,-1.38127622844,-1.37924687118683,-1.37722092131897,-1.37519837338438,-1.3731792219749,-1.37116346165617,-1.36915108701996,-1.36714209270195,-1.36513647331563,-1.36313422347079,-1.36113533779319,-1.35913981093345,-1.35714763754073,-1.35515881227922,-1.35317332979946,-1.35119118478295,-1.34921237190944,-1.34723688586039,-1.34526472131704,-1.34329587299534,-1.34133033561985,-1.33936810394817,-1.33740917269984,-1.33545353660566,-1.33350119041357,-1.331552128885,-1.32960634680585,-1.32766383894459,-1.32572460005458,-1.32378862495493,-1.32185590843812,-1.31992644532988,-1.31800023044782,-1.31607725859688,-1.31415752461368,-1.3122410233576,-1.31032774967308,-1.3084176984391,-1.30651086453199,-1.3046072428269,-1.30270682821867,-1.30080961562901,-1.2989155999177,-1.29702477599866,-1.29513713877994,-1.2932526831861,-1.29137140413665,-1.28949329657414,-1.2876183554619,-1.28574657578026,-1.28387795249005,-1.28201248056174,-1.28015015496493,-1.27829097069814,-1.27643492276735,-1.27458200619696,-1.27273221604017,-1.27088554727353,-1.2690419949211,-1.26720155406657,-1.26536421971988,-1.26352998697581,-1.26169885088232,-1.25987080650052,-1.2580458489291,-1.25622397325528,-1.25440517458036,-1.25258944800009,-1.25077678862725,-1.24896719157669,-1.24716065198742,-1.24535716501138,-1.2435567258035,-1.24175932950107,-1.23996497123943,-1.23817364621217,-1.23638534961586,-1.23460007663957,-1.23281782244991,-1.23103858225289,-1.22926235126544,-1.22748912468964,-1.22571889779238,-1.22395166579108,-1.22218742386897,-1.22042616730721,-1.21866789136179,-1.21691259128456,-1.21516026233941,-1.21341089981134,-1.21166449898893,-1.20992105517704,-1.20818056367199,-1.20644301977493,-1.20470841879011,-1.2029767560402,-1.20124802687555,-1.19952222663843,-1.19779935064382,-1.196079394272,-1.19436235289422,-1.19264822189137,-1.1909369966389,-1.18922867251378,-1.18752324490252,-1.18582070920015,-1.18412106081008,-1.18242429514529,-1.18073040762397,-1.17903939368625,-1.17735124881502,-1.17566596842583,-1.17398354796599,-1.17230398291449,-1.17062726873405,-1.16895340087966,-1.16728237484235,-1.16561418609631,-1.16394883012575,-1.16228630242178,-1.16062659850851,-1.15896971390859,-1.15731564415376,-1.15566438479331,-1.15401593135685,-1.15237027938881,-1.15072742445029,-1.14908736212171,-1.14745008795597,-1.145815597534,-1.1441838864558,-1.14255495028719,-1.14092878463823,-1.1393053851194,-1.13768474732405,-1.13606686685278,-1.13445173933863,-1.13283936044201,-1.13122972581006,-1.12962283107187,-1.12801867186351,-1.12641724384348,-1.12481854266786,-1.1232225640174,-1.1216293035838,-1.12003875706895,-1.11845092018081,-1.11686578862595,-1.11528335809354,-1.11370362427546,-1.1121265829163,-1.11055222975896,-1.10898056053494,-1.10741157099708,-1.10584525690577,-1.10428161401347,-1.10272063809179,-1.10116232489924,-1.09960667020742,-1.09805366981031,-1.09650331950067,-1.09495561510073,-1.09341055239674,-1.09186812720619,-1.0903283353624,-1.08879117269675,-1.08725663506732,-1.08572471829375,-1.08419541821233,-1.08266873068655,-1.08114465157722,-1.07962317677451,-1.07810430218315,-1.07658802365789,-1.07507433706129,-1.07356323831542,-1.07205472332146,-1.07054878797809,-1.06904542819651,-1.06754463989385,-1.06604641901319,-1.0645507615025,-1.06305766328781,-1.06156712032206,-1.06007912854185,-1.05859368389082,-1.05711078232383,-1.05563041984552,-1.0541525924467,-1.05267729612507,-1.05120452686237,-1.04973428067436,-1.04826655358401,-1.0468013415841,-1.0453386406736,-1.04387844688975,-1.04242075627997,-1.040965564909,-1.03951286877741,-1.03806266394805,-1.03661494649985,-1.03516971248909,-1.0337269580008,-1.03228667909861,-1.0308488718623,-1.02941353238866,-1.02798065679848,-1.02655024120118,-1.0251222817026,-1.02369677440327,-1.02227371542686,-1.02085310090666,-1.01943492698078,-1.01801918979841,-1.01660588550536,-1.01519501024477,-1.01378656019339,-1.01238053150887,-1.01097692036776,-1.00957572294795,-1.00817693542321,-1.00678055399213,-1.00538657487826,-1.00399499427987,-1.0026058084011,-1.00121901344773,-0.999834605653757,-0.998452581273506,-0.997072936533793,-0.99569566767577,-0.994320770938816,-0.992948242580694,-0.991578078857902,-0.990210276047385,-0.988844830376604,-0.987481738120324,-0.986120995582144,-0.9847625990692,-0.983406544844054,-0.982052829244687,-0.980701448590694,-0.979352399214436,-0.978005677415187,-0.976661279522901,-0.975319201884435,-0.973979440823727,-0.97264199265362,-0.971306853738044,-0.969974020458108,-0.968643489160224,-0.967315256220378,-0.965989318027087,-0.964665670949834,-0.963344311364846,-0.962025235649842,-0.960708440185098,-0.959393921415953,-0.958081675733762,-0.956771699529642,-0.955463989247901,-0.954158541321912,-0.952855352191535,-0.951554418282633,-0.950255736067998,-0.948959301998202,-0.947665112512121,-0.946373164099112,-0.945083453224719,-0.943795976342523,-0.942510729944735,-0.941227710530505,-0.939946914569974,-0.938668338534012,-0.937391978940286,-0.936117832311743,-0.934845895161483,-0.933576164048996,-0.932308635471035,-0.931043305953644,-0.929780172044108,-0.928519230264551,-0.927260477135407,-0.926003909213114,-0.924749523090172,-0.923497315318288,-0.922247282454584,-0.920999421109304,-0.91975372787107,-0.918510199308822,-0.917268832013963,-0.916029622602123,-0.914792567654894,-0.913557663749393,-0.912324907539314,-0.911094295678595,-0.909865824791949,-0.908639491481858,-0.907415292394346,-0.906193224160511,-0.904973283429757,-0.903755466859533,-0.902539771107469,-0.901326192825287,-0.900114728681885,-0.898905375339669,-0.897698129484145,-0.896492987819066,-0.895289947009694,-0.894089003756179,-0.892890154779224,-0.891693396760451,-0.890498726417225,-0.889306140495507,-0.888115635713356,-0.886927208805351,-0.885740856513482,-0.88455657556756,-0.88337436271112,-0.882194214672883,-0.881016128223645,-0.879840100117987,-0.878666127116652,-0.877494206021235,-0.876324333623133,-0.875156506698665,-0.873990722038657,-0.872826976429871,-0.871665266679753,-0.870505589602985,-0.869347942004884,-0.8681923206854,-0.867038722453422,-0.86588714414064,-0.864737582572357,-0.863590034596759,-0.862444497069144,-0.86130096683291,-0.860159440740104,-0.859019915622405,-0.857882388322069,-0.856746855698848,-0.855613314636174,-0.854481762012957,-0.853352194737929,-0.852224609683065,-0.851099003742924,-0.849975373794607,-0.848853716738844,-0.847734029451355,-0.846616308875364,-0.845500551962951,-0.844386755620757,-0.843274916773846,-0.842165032365347,-0.841057099305935,-0.839951114508103,-0.838847074932936,-0.837744977548732,-0.836644819290347,-0.835546597100539,-0.83445030797795,-0.833355948909938,-0.832263516887844,-0.831173008869887,-0.830084421826033,-0.828997752776015,-0.827912998703903,-0.826830156598811,-0.825749223512286,-0.8246701964313,-0.823593072362094,-0.822517848320977,-0.821444521319783,-0.82037308839578,-0.819303546568659,-0.818235892931599,-0.817170124544795,-0.816106238435355,-0.815044231639335,-0.813984101237246,-0.812925844304208,-0.811869457911719,-0.810814939124454,-0.809762284967056,-0.80871149252071,-0.807662558904114,-0.806615481233074,-0.805570256632425,-0.804526882145896,-0.803485354888441,-0.802445671987227,-0.801407830561692,-0.800371827730773,-0.799337660656097,-0.798305326436495,-0.797274822178245,-0.796246145054894,-0.795219292197202,-0.794194260769406,-0.793171047930392,-0.79214965085865,-0.791130066699465,-0.790112292575694,-0.789096325676042,-0.788082163198423,-0.787069802333833,-0.786059240271038,-0.785050474227874,-0.784043501385844,-0.783038318911218,-0.782034923996134,-0.781033313864133,-0.780033485762024,-0.779035436906679,-0.778039164509539,-0.777044665787322,-0.776051937963641,-0.775060978274585,-0.774071783990009,-0.773084352354203,-0.772098680601565,-0.771114765963094,-0.770132605712611,-0.769152197143337,-0.768173537510097,-0.767196624091768,-0.766221454166628,-0.765248025007141,-0.764276333891025,-0.763306378105029,-0.76233815495603,-0.7613716617329,-0.760406895769311,-0.759443854368007,-0.758482534808117,-0.757522934429325,-0.756565050559816,-0.755608880531123,-0.754654421712361,-0.753701671436966,-0.752750627003829,-0.751801285759968,-0.750853645037752,-0.749907702182864,-0.748963454552106,-0.748020899525165,-0.74708003447193,-0.746140856756551,-0.745203363737358,-0.744267552808062,-0.743333421359021,-0.742400966777406,-0.741470186455858,-0.740541077796804,-0.739613638196421,-0.738687865038654,-0.737763755734538,-0.736841307713988,-0.735920518390668,-0.735001385197888,-0.734083905549508,-0.733168076880434,-0.732253896645267,-0.731341362274541,-0.73043047120351,-0.729521220871184,-0.72861360873953,-0.727707632237654,-0.726803288828244,-0.725900575997988,-0.724999491222972,-0.72410003196408,-0.723202195693152,-0.722305979879436,-0.721411382012469,-0.720518399591062,-0.719627030113111,-0.718737271066149,-0.717849119959489,-0.71696257430409,-0.716077631599074,-0.715194289363593,-0.714312545123341,-0.71343239638533,-0.712553840660773,-0.711676875483635,-0.710801498377641,-0.709927706872349,-0.709055498533992,-0.708184870899262,-0.707315821498011,-0.706448347919233,-0.705582447696652,-0.704718118367317,-0.703855357533488,-0.702994162756098,-0.70213453162337,-0.701276461679995,-0.700419950533484,-0.699564995786104,-0.698711595019391,-0.697859745820558,-0.69700944577913,-0.696160692503841,-0.695313483598793,-0.694467816662388,-0.693623689306775,-0.69278109915345,-0.691940043801928,-0.691100520862403,-0.690262527970606,-0.689426062784749,-0.688591122930281,-0.687757706057952,-0.686925809836665,-0.686095431916469,-0.685266569939526,-0.684439221563794,-0.683613384455243,-0.682789056261391,-0.681966234644478,-0.681144917285204,-0.680325101880035,-0.679506786077396,-0.67868996755236,-0.677874643989031,-0.677060813071054,-0.676248472498802,-0.675437619992412,-0.674628253258602,-0.673820370005305,-0.673013967942376,-0.672209044782287,-0.671405598257812,-0.670603626077238,-0.669803125957962,-0.669004095605831,-0.668206532740528,-0.667410435135816,-0.666615800534363,-0.665822626642297,-0.665030911207778,-0.664240652005013,-0.663451846786284,-0.662664493279972,-0.661878589272734,-0.661094132536933,-0.660311120832319,-0.659529551945292,-0.658749423640788,-0.657970733702175,-0.657193479926354,-0.656417660104813,-0.655643272014979,-0.654870313448226,-0.654098782203151,-0.653328676101059,-0.652559992933756,-0.651792730500884,-0.651026886619899,-0.650262459111134,-0.649499445787751,-0.648737844477092,-0.647977653011346,-0.647218869217278,-0.646461490931225,-0.6457055159872,-0.644950942228706,-0.644197767496843,-0.643445989642965,-0.642695606508372,-0.641946615926216,-0.641199015804607,-0.64045280403027,-0.639707978446393,-0.638964536881981,-0.638222477222941,-0.637481797335463,-0.636742495060785,-0.636004568306438,-0.63526801499679,-0.63453283301469,-0.633799020266249,-0.633066574596739,-0.632335493945491,-0.631605776226419,-0.630877419345203,-0.63015042122567,-0.629424779773571,-0.628700492902178,-0.627977558538155,-0.627255974581723,-0.626535739002508,-0.625816849717793,-0.625099304632975,-0.624383101697586,-0.623668238920134,-0.622954714231518,-0.622242525596279,-0.62153167093175,-0.62082214817914,-0.620113955298078,-0.619407090266609,-0.618701551052049,-0.617997335622009,-0.617294441945527,-0.616592867996592,-0.61589261176221,-0.615193671218275,-0.614496044336777,-0.61379972913312,-0.613104723580455,-0.612411025685649,-0.611718633449944,-0.611027544866338,-0.610337757911376,-0.609649270600881,-0.608962080938456,-0.608276186961099,-0.607591586694285,-0.606908278162712,-0.606226259401046,-0.605545528431492,-0.604866083261668,-0.604187921956044,-0.603511042546877,-0.602835443065546,-0.602161121586115,-0.60148807612609,-0.600816304781449,-0.600145805580913,-0.599476576567016,-0.598808615818796,-0.598141921392164,-0.59747649134586,-0.596812323766061,-0.596149416730797,-0.595487768329326,-0.594827376601726,-0.594168239661114,-0.593510355582944,-0.592853722474037,-0.59219833841493,-0.59154420148406,-0.590891309777992,-0.590239661421593,-0.589589254502745,-0.588940087138053,-0.588292157411581,-0.58764546343525,-0.587000003376077,-0.586355775357698,-0.585712777496795,-0.585071007930746,-0.584430464802344,-0.583791146232773,-0.583153050321314,-0.582516175185449,-0.581880519011506,-0.581246079948408,-0.580612856138012,-0.57998084575054,-0.579350046961522,-0.578720457891023,-0.578092076733866,-0.577464901638097,-0.576838930753444,-0.576214162244107,-0.57559059429689,-0.574968225090639,-0.574347052795531,-0.573727075590185,-0.573108291671703,-0.572490699233733,-0.571874296463997,-0.571259081570662,-0.570645052749167,-0.570032208176056,-0.569420546050293,-0.568810064574856,-0.568200761968342,-0.567592636429374,-0.566985686169422,-0.56637990943027,-0.565775304449704,-0.565171869442831,-0.564569602654351,-0.563968502330469,-0.563368566660958,-0.562769793864954,-0.562172182205244,-0.561575729885128,-0.560980435198512,-0.560386296406471,-0.559793311737319,-0.559201479440924,-0.558610797762888,-0.558021264969512,-0.557432879311924,-0.556845639059327,-0.556259542494039,-0.555674587919763,-0.555090773591557,-0.554508097737758,-0.553926558666855,-0.55334615465325,-0.55276688397078,-0.552188744927659,-0.551611735815538,-0.551035854915235,-0.550461100520498,-0.549887470925051,-0.5493149644569,-0.548743579435745,-0.548173314161163,-0.547604166903125,-0.5470361359955,-0.546469219711634,-0.545903416364428,-0.545338724328978,-0.544775141960436,-0.544212667561406,-0.543651299462219,-0.543091036001268,-0.542531875502289,-0.541973816300966,-0.541416856747038,-0.540860995189727,-0.54030622996408,-0.539752559416647,-0.539199981908086,-0.538648495796825,-0.538098099432473,-0.537548791204914,-0.537000569442648,-0.536453432512177,-0.535907378774844,-0.535362406597516,-0.534818514365171,-0.534275700453513,-0.533733963214614,-0.533193301069852,-0.532653712409538,-0.532115195609744,-0.531577749051533,-0.531041371118563,-0.530506060250686,-0.529971814851646,-0.529438633310851,-0.528906514027708,-0.528375455404331,-0.52784545583882,-0.527316513748805,-0.526788627580359,-0.526261795732803,-0.525736016611892,-0.52521128862769,-0.524687610233539,-0.524164979843016,-0.523643395873782,-0.52312285675493,-0.522603360925504,-0.522084906844957,-0.521567492952407,-0.521051117669529,-0.520535779441087,-0.520021476726154,-0.519508207974559,-0.518995971624257,-0.518484766143208,-0.517974589981837,-0.517465441621196,-0.516957319539365,-0.516450222157619,-0.515944147941644,-0.515439095395096,-0.514935062969409,-0.514432049148888,-0.513930052400266,-0.513429071202629,-0.512929104035093,-0.512430149365422,-0.511932205718349,-0.511435271593021,-0.510939345473683,-0.510444425878761,-0.509950511297054,-0.509457600223166,-0.508965691146616,-0.508474782584012,-0.507984873052454,-0.507495961065989,-0.50700804510647,-0.506521123691243,-0.506035195372081,-0.505550258680782,-0.505066312134549,-0.504583354260242,-0.504101383574499,-0.50362039859915,-0.503140397901467,-0.502661380044074,-0.50218334354088,-0.50170628690644,-0.50123020867683,-0.500755107411825,-0.500280981661091,-0.499807829955404,-0.499335650871161,-0.498864442965793,-0.498394204821337,-0.497924934978712,-0.497456631984126,-0.496989294389491,-0.496522920771378,-0.496057509700597,-0.495593059765323,-0.495129569559916,-0.494667037662001,-0.494205462614705,-0.493744843021162,-0.493285177467189,-0.492826464533314,-0.492368702805019,-0.491911890885693,-0.491456027367546,-0.49100111083911,-0.490547139897677,-0.490094113151638,-0.489642029182561,-0.489190886588334,-0.488740683991512,-0.488291420007267,-0.487843093267577,-0.487395702410966,-0.486949246036381,-0.486503722755248,-0.48605913119918,-0.485615469974632,-0.485172737707174,-0.484730933023243,-0.484290054553886,-0.483850100935676,-0.483411070762323,-0.48297296269488,-0.482535775391283,-0.482099507518307,-0.481664157667874,-0.481229724524915,-0.480796206697309,-0.480363602882749,-0.479931911767728,-0.479501131973422,-0.479071262152947,-0.478642300964831,-0.478214247056528,-0.477787099088748,-0.47736085573609,-0.476935515664189,-0.476511077537355,-0.47608754004092,-0.47566490184127,-0.475243161606917,-0.474822318035169,-0.4744023698193,-0.47398331564678,-0.473565154238386,-0.473147884256672,-0.472731504389429,-0.47231601332351,-0.471901409760742,-0.471487692395428,-0.471074859923261,-0.470662911070386,-0.470251844534687,-0.469841659011467,-0.469432353212891,-0.469023925842304,-0.468616375610502,-0.468209701225186,-0.467803901417272,-0.467398974940607,-0.466994920521314,-0.466591736839331,-0.466189422622558,-0.46578797661735,-0.465387397547846,-0.464987684136833,-0.464588835130638,-0.464190849276138,-0.463793725304061,-0.463397461940304,-0.463002057931745,-0.462607512068237,-0.462213823061156,-0.461820989642424,-0.461429010570945,-0.461037884616967,-0.460647610577073,-0.460258187178267,-0.45986961318435,-0.459481887352347,-0.459095008441484,-0.458708975230095,-0.458323786466879,-0.457939440927485,-0.457555937386498,-0.457173274615952,-0.456791451409725,-0.456410466533817,-0.456030318741404,-0.455651006856523,-0.455272529656573,-0.454894885915884,-0.45451807442354,-0.454142093977649,-0.45376694338477,-0.453392621439893,-0.453019126927355,-0.452646458655357,-0.452274615427453,-0.451903596032078,-0.451533399275436,-0.451164023939979,-0.450795468855558,-0.450427732795938,-0.450060814593737,-0.449694713077542,-0.449329427080604,-0.448964955453073,-0.44860129697322,-0.448238450469739,-0.447876414756595,-0.447515188658127,-0.447154771032681,-0.446795160732699,-0.446436356556913,-0.446078357316112,-0.445721161848568,-0.445364769004398,-0.445009177642945,-0.444654386581769,-0.44430039464949,-0.443947200722635,-0.443594803677042,-0.44324320235517,-0.442892395613922,-0.442542382306955,-0.442193161271092,-0.441844731376405,-0.441497091455471,-0.44115024036725,-0.440804176977198,-0.440458900173324,-0.440114408811087,-0.439770701751867,-0.439427777904348,-0.439085636167143,-0.438744275379777,-0.438403694422487,-0.438063892194505,-0.437724867566167,-0.437386619440876,-0.437049146698436,-0.436712448185644,-0.436376522765872,-0.436041369360445,-0.435706986896856,-0.435373374254939,-0.435040530352946,-0.434708454081196,-0.434377144360007,-0.434046600090953,-0.433716820163154,-0.433387803474785,-0.433059548930307,-0.432732055426885,-0.432405321851484,-0.43207934714241,-0.431754130199325,-0.431429669936726,-0.431105965301976,-0.430783015223877,-0.43046081863212,-0.430139374415905,-0.429818681504286,-0.429498738822953,-0.429179545347638,-0.428861100000265,-0.428543401703349,-0.428226449405311,-0.427910242050985,-0.427594778592997,-0.427280057952578,-0.426966079054009,-0.426652840837422,-0.426340342251509,-0.426028582269859,-0.425717559875257,-0.425407273987948,-0.425097723552787,-0.424788907521052,-0.424480824836721,-0.42417347444913,-0.423866855306678,-0.423560966401308,-0.423255806690564,-0.422951375143277,-0.422647670723155,-0.422344692383119,-0.422042439097059,-0.421740909839323,-0.421440103587964,-0.421140019333368,-0.420840656074572,-0.420542012784957,-0.420244088447753,-0.419946882052285,-0.41965039256264,-0.419354618941356,-0.419059560153025,-0.418765215237439,-0.418471583167894,-0.418178662944849,-0.417886453581275,-0.417594954052295,-0.417304163357493,-0.41701408050415,-0.416724704508445,-0.416436034388586,-0.416148069147555,-0.41586080777211,-0.415574249295736,-0.415288392724021,-0.415003237051485,-0.414718781301261,-0.414435024500332,-0.414151965658031,-0.413869603780604,-0.413587937871564,-0.413306966958425,-0.413026690064547,-0.412747106223634,-0.412468214462403,-0.412190013817908,-0.411912503320138,-0.411635682014652,-0.41135954894977,-0.411084103154006,-0.410809343654672,-0.410535269485866,-0.410261879693279,-0.40998917330809,-0.409717149382336,-0.409445806957426,-0.409175145085931,-0.408905162849541,-0.408635859250773,-0.408367233351396,-0.408099284218454,-0.407832010887838,-0.407565412430067,-0.407299487923405,-0.407034236410922,-0.406769656953543,-0.40650574859192,-0.406242510415398,-0.405979941488654,-0.40571804086026,-0.405456807598255,-0.405196240794957,-0.40493633952954,-0.404677102894341,-0.404418529947543,-0.404160619774564,-0.403903371482046,-0.403646784123296,-0.403390856767674,-0.4031355885042,-0.402880978422099,-0.402627025612846,-0.402373729181134,-0.402121088190541,-0.40186910174233,-0.401617768936541,-0.40136708885395,-0.401117060582809,-0.400867683227252,-0.400618955895985,-0.400370877698882,-0.400123447740406,-0.399876665109774,-0.39963052892962,-0.399385038301034,-0.39914019233192,-0.398895990121858,-0.398652430790117,-0.398409513454777,-0.3981672372246,-0.397925601240332,-0.397684604634527,-0.397444246529064,-0.397204526014707,-0.396965442211293,-0.396726994237461,-0.396489181238656,-0.396252002333866,-0.396015456639171,-0.395779543300707,-0.395544261452573,-0.395309610200562,-0.395075588681999,-0.394842196045792,-0.394609431446205,-0.394377294013076,-0.394145782881663,-0.393914897218818,-0.393684636137533,-0.393454998753244,-0.393225984245154,-0.392997591782317,-0.392769820519882,-0.392542669590888,-0.392316138145732,-0.392090225320263,-0.391864930267895,-0.391640252127421,-0.391416190060923,-0.391192743238561,-0.390969910850741,-0.390747692067436,-0.390526086046249,-0.390305091909915,-0.390084708876175,-0.389864936147629,-0.389645772861379,-0.38942721817433,-0.389209271245359,-0.388991931229309,-0.388775197321822,-0.388559068721431,-0.388343544608193,-0.388128624175588,-0.387914306593096,-0.387700591054017,-0.387487476727927,-0.387274962793366,-0.387063048441006,-0.386851732876842,-0.386641015305069,-0.386430894887971,-0.386221370829456,-0.386012442330073,-0.385804108586579,-0.385596368796958,-0.385389222161063,-0.385182667879544,-0.384976705152083,-0.384771333175976,-0.384566551169542,-0.384362358322256,-0.384158753822542,-0.383955736899721,-0.383753306782976,-0.383551462660614,-0.383350203734809,-0.383149529208371,-0.382949438310421,-0.382749930253246,-0.382551004255702,-0.382352659542155,-0.382154895346794,-0.381957710903798,-0.381761105451431,-0.381565078192715,-0.381369628348056,-0.381174755135788,-0.380980457784053,-0.380786735512127,-0.380593587536358,-0.380401013088981,-0.380209011383102,-0.380017581690997,-0.379826723243597,-0.379636435268403,-0.379446717015013,-0.379257567752012,-0.379068986705996,-0.378880973111083,-0.378693526188397,-0.378506645198271,-0.378320329414566,-0.378134578066951,-0.377949390425358,-0.377764765715305,-0.377580703156737,-0.377397202011551,-0.377214261573905,-0.377031881117588,-0.376850059885411,-0.37666879716906,-0.376488092239355,-0.37630794430946,-0.376128352612409,-0.375949316440858,-0.375770835062909,-0.375592907735966,-0.37541553372584,-0.375238712315724,-0.375062442779102,-0.37488672439361,-0.37471155642017,-0.37453693816721,-0.37436286892637,-0.374189347941936,-0.374016374477618,-0.373843947811806,-0.37367206723884,-0.373500732041918,-0.37332994150243,-0.373159694888854,-0.372989991503788,-0.37282083065707,-0.372652211612587,-0.372484133631133,-0.372316595999342,-0.372149598000822,-0.371983138976001,-0.371817218220189,-0.371651835033802,-0.371486988754966,-0.371322678656106,-0.371158903987016,-0.370995664068086,-0.370832958202946,-0.370670785711921,-0.37050914590062,-0.370348038042887,-0.370187461447788,-0.370027415464843,-0.369867899402394,-0.369708912558301,-0.369550454218318,-0.369392523715292,-0.36923512037109,-0.369078243505576,-0.368921892421834,-0.368766066423982,-0.36861076484052,-0.36845598700975,-0.368301732247315,-0.368147999877452,-0.367994789220479,-0.36784209961889,-0.367689930373549,-0.367538280803886,-0.367387150276262,-0.367236538105213,-0.367086443618675,-0.366936866136261,-0.366787804985885,-0.3666392595254,-0.366491229085237,-0.366343712990184,-0.366196710588813,-0.366050221233458,-0.365904244256022,-0.365758778979862,-0.365613824781251,-0.365469380999618,-0.365325447013581,-0.365182022144184,-0.365039105736524,-0.364896697129258,-0.364754795661324,-0.364613400656519,-0.364472511475698,-0.364332127492158,-0.364192248058743,-0.364052872539393,-0.363914000280773,-0.363775630606544,-0.363637762924385,-0.363500396600928,-0.363363530992245,-0.363227165441017,-0.363091299276321,-0.362955931886764,-0.362821062651308,-0.362686690954826,-0.362552816164191,-0.362419437647379,-0.362286554774874,-0.362154166910122,-0.362022273421056,-0.361890873669629,-0.361759967060899,-0.36162955297668,-0.361499630769598,-0.361370199795978,-0.361241259446053,-0.361112809148127,-0.360984848284548,-0.360857376246945,-0.360730392393009,-0.360603896111355,-0.360477886761821,-0.360352363745421,-0.360227326459218,-0.360102774296811,-0.359978706647492,-0.359855122891148,-0.359732022434754,-0.359609404660674,-0.359487268962725,-0.359365614736206,-0.359244441370115,-0.359123748279543,-0.359003534851207,-0.358883800446561,-0.358764544469063,-0.358645766341677,-0.358527465467407,-0.358409641274844,-0.358292293163909,-0.358175420538892,-0.358059022803137,-0.357943099368171,-0.357827649648888,-0.357712673052728,-0.357598168991486,-0.357484136874665,-0.357370576121564,-0.357257486149821,-0.357144866372229,-0.357032716209041,-0.356921035073113,-0.356809822373015,-0.356699077517277,-0.356588799934471,-0.356478989040249,-0.356369644270516,-0.356260765062968,-0.356152350863102,-0.356044401114378,-0.355936915239764,-0.355829892648728,-0.355723332751322,-0.355617235002803,-0.35551159883404,-0.355406423690549,-0.355301709003707,-0.355197454200864,-0.355093658712556,-0.354990321974131,-0.354887443436359,-0.354785022527654,-0.354683058680389,-0.354581551329055,-0.354480499906086,-0.354379903840087,-0.354279762603581,-0.354180075647647,-0.354080842414581,-0.353982062349141,-0.353883734896491,-0.353785859488483,-0.353688435586728,-0.353591462648785,-0.353494940143297,-0.353398867519924,-0.353303244216067,-0.353208069707224,-0.353113343448071,-0.353019064871679,-0.35292523342495,-0.352831848562325,-0.352738909781499,-0.352646416547662,-0.352554368302839,-0.35246276449149,-0.352371604601183,-0.352280888095818,-0.352190614426025,-0.352100783077119,-0.352011393504165,-0.351922445179297,-0.351833937574741,-0.351745870169744,-0.35165824243841,-0.351571053864902,-0.351484303929082,-0.351397992087981,-0.351312117823538,-0.351226680629446,-0.351141679998203,-0.351057115386806,-0.350972986281118,-0.350889292116574,-0.350806032381588,-0.350723206537558,-0.350640814074813,-0.350558854503555,-0.350477327310782,-0.350396231946777,-0.350315567932905,-0.350235334766688,-0.350155531957376,-0.350076158961799,-0.34999721522008,-0.349918700248579,-0.349840613575669,-0.349762954697237,-0.349685723107811,-0.349608918277634,-0.349532539700627,-0.349456586859584,-0.349381059295912,-0.349305956504453,-0.349231277962477,-0.349157023194267,-0.349083191708795,-0.349009782999304,-0.348936796560131,-0.348864231911825,-0.34879208857674,-0.348720366039348,-0.348649063807566,-0.348578181387437,-0.348507718329805,-0.348437674125703,-0.348368048258691,-0.348298840236832,-0.348230049599545,-0.34816167584815,-0.348093718490634,-0.348026177060542,-0.347959051072619,-0.347892340042055,-0.347826043486246,-0.347760160942621,-0.347694691926838,-0.347629635978401,-0.347564992577337,-0.347500761202199,-0.347436941407936,-0.347373532729845,-0.347310534689642,-0.347247946815201,-0.347185768639139,-0.347123999693153,-0.347062639515093,-0.347001687647121,-0.346941143606356,-0.346881006920452,-0.346821277122644,-0.346761953795532,-0.346703036449206,-0.346644524592823,-0.346586417760358,-0.346528715507701,-0.346471417356137,-0.346414522829835,-0.346358031485346,-0.346301942866893,-0.346246256551569,-0.346190972039986,-0.346136088862155,-0.346081606556907,-0.34602752468158,-0.345973842757835,-0.345920560346493,-0.345867676995896,-0.345815192261075,-0.345763105693775,-0.345711416832978,-0.345660125243164,-0.345609230475623,-0.345558732054725,-0.345508629550855,-0.345458922530252,-0.345409610588116,-0.345360693269385,-0.345312170125811,-0.345264040706983,-0.345216304582883,-0.345168961317647,-0.345122010451099,-0.345075451538646,-0.345029284131047,-0.344983507827743,-0.344938122157103,-0.344893126683233,-0.344848520971881,-0.344804304616182,-0.344760477169952,-0.344717038191053,-0.344673987214436,-0.344631323847066,-0.344589047704759,-0.344547158325104,-0.344505655263871,-0.34446453808341,-0.344423806341975,-0.344383459635161,-0.344343497540956,-0.344303919637341,-0.34426472551616,-0.344225914749444,-0.344187486897762,-0.344149441545793,-0.344111778260597,-0.344074496623512,-0.344037596187924,-0.34400107656231,-0.343964937332639,-0.343929178075883,-0.343893798417663,-0.343858797916314,-0.343824176148897,-0.343789932714451,-0.343756067213908,-0.343722579223627,-0.343689468347039,-0.343656734165269,-0.34362437622631,-0.343592394143347,-0.343560787504851,-0.343529555916663,-0.343498698944063,-0.343468216192618,-0.343438107271114,-0.343408371782507,-0.343379009338696,-0.343350019515612,-0.343321401925436,-0.343293156186179,-0.343265281914753,-0.343237778675046,-0.343210646032603,-0.343183883618282,-0.34315749100645,-0.34313146783297,-0.343105813717102,-0.343080528245664,-0.343055611006198,-0.343031061599498,-0.34300687965106,-0.342983064760865,-0.342959616533858,-0.342936534607681,-0.342913818591767,-0.342891468092662,-0.342869482706381,-0.342847862022586,-0.342826605682373,-0.342805713322247,-0.342785184564573,-0.342765019001944,-0.342745216255815,-0.342725775941988,-0.342706697657946,-0.342687981045171,-0.342669625728167,-0.342651631346435,-0.342633997515989,-0.342616723845412,-0.342599809944909,-0.342583255433028,-0.342567059941676,-0.342551223083163,-0.342535744460378,-0.342520623716875,-0.342505860502491,-0.342491454453329,-0.342477405180154,-0.342463712334602,-0.342450375575084,-0.342437394484802,-0.342424768656773,-0.342412497766897,-0.34240058145632,-0.342389019360582,-0.342377811124465,-0.342366956368323,-0.342356454718572,-0.342346305812208,-0.342336509282314,-0.342327064767247,-0.342317971891401,-0.342309230264287,-0.342300839557063,-0.342292799438665,-0.342285109542836,-0.342277769523095,-0.342270779024506,-0.342264137679221,-0.342257845140647,-0.342251901041922,-0.342246305034323,-0.342241056790164,-0.342236155958445,-0.342231602185225,-0.342227395106543,-0.342223534368225,-0.342220019607421,-0.342216850476371,-0.342214026634129,-0.342211547739132,-0.342209413442621,-0.342207623366575,-0.342206177165881,-0.342205074524442,-0.342204315102203,-0.342203898528631,-0.342203824472115,-0.342204092583372,-0.342204702525438,-0.342205653956196,-0.342206946509772,-0.342208579867976,-0.342210553710148,-0.342212867689465,-0.342215521467526,-0.342218514693766,-0.342221847030713,-0.342225518172865,-0.342229527792372,-0.342233875538396,-0.342238561089166,-0.342243584091509,-0.342248944216929,-0.342254641128302,-0.342260674506037,-0.342267044010099,-0.342273749312183,-0.342280790103645,-0.342288166042513,-0.342295876801306,-0.342303922054301,-0.342312301475622,-0.342321014733648,-0.342330061543078,-0.342339441539372,-0.342349154383084,-0.34235919975102,-0.342369577324284,-0.342380286765215,-0.342391327767397,-0.342402700034437,-0.342414403260443,-0.342426437115943,-0.342438801244281,-0.342451495335034,-0.342464519073369,-0.342477872150721,-0.342491554286933,-0.342505565154568,-0.342519904426157,-0.342534571769677,-0.342549566879877,-0.342564889429477,-0.342580539109201,-0.342596515641426,-0.342612818710227,-0.342629448024609,-0.342646403295736,-0.342663684203111,-0.342681290446359,-0.342699221689908,-0.342717477619223,-0.342736057921779,-0.34275496227277,-0.342774190360359,-0.342793741872595,-0.342813616524076,-0.342833814021005,-0.342854334061475,-0.342875176313677,-0.342896340498947,-0.342917826340548,-0.342939633527032,-0.342961761759701,-0.342984210720987,-0.343006980108192,-0.343030069655345,-0.343053479040821,-0.34307720795022,-0.343101256119025,-0.343125623266035,-0.343150309077735,-0.343175313238708,-0.343200635431282,-0.343226275390277,-0.343252232867781,-0.343278507542674,-0.343305099131756,-0.34333200734306,-0.343359231895444,-0.343386772496094,-0.343414628862811,-0.343442800690475,-0.343471287683587,-0.343500089564399,-0.34352920604356,-0.343558636844803,-0.343588381672826,-0.343618440222138,-0.343648812231025,-0.343679497425458,-0.343710495548024,-0.343741806296383,-0.343773429384029,-0.343805364555357,-0.343837611509693,-0.343870169949178,-0.343903039583579,-0.343936220166718,-0.343969711441011,-0.344003513128842,-0.344037624960711,-0.344072046644818,-0.344106777895783,-0.344141818431315,-0.344177167981627,-0.344212826288366,-0.344248793071017,-0.34428506803624,-0.3443216509022,-0.344358541396019,-0.344395739263894,-0.344433244216058,-0.34447105598486,-0.344509174316979,-0.344547598951565,-0.344586329623707,-0.344625366078647,-0.344664708019087,-0.344704355172519,-0.344744307298378,-0.344784564128829,-0.344825125372235,-0.344865990815721,-0.344907160191202,-0.344948633204737,-0.344990409579039,-0.345032489080849,-0.345074871471563,-0.345117556466133,-0.345160543823536,-0.345203833315227,-0.345247424625187,-0.345291317500733,-0.345335511677675,-0.345380006906561,-0.345424802954798,-0.345469899556428,-0.345515296440279,-0.345560993362435,-0.345606990086992,-0.345653286343264,-0.345699881909247,-0.345746776500995,-0.345793969819648,-0.345841461598552,-0.345889251644062,-0.345937339711196,-0.345985725549114,-0.346034408897227,-0.34608338950769,-0.346132667156082,-0.346182241593871,-0.346232112587814,-0.346282279856719,-0.346332743161204,-0.346383502287289,-0.34643455695373,-0.346485906865214,-0.346537551803884,-0.346589491548495,-0.34664172586224,-0.346694254458944,-0.346747077103641,-0.346800193570283,-0.346853603622138,-0.346907307032162,-0.346961303553295,-0.347015592940663,-0.347070174947763,-0.347125049350867,-0.347180215920931,-0.347235674431173,-0.347291424624247,-0.347347466269321,-0.347403799124382,-0.347460422984896,-0.347517337615833,-0.347574542778475,-0.347632038238545,-0.347689823763386,-0.34774789912011,-0.347806264068818,-0.347864918362307,-0.347923861785331,-0.347983094117821,-0.348042615145204,-0.348102424623536,-0.348162522318265,-0.348222907994109,-0.348283581420788,-0.348344542417448,-0.34840579073969,-0.348467326175563,-0.348529148476309,-0.348591257376665,-0.348653652667294,-0.348716334142586,-0.348779301560755,-0.348842554701847,-0.348906093316315,-0.348969917199214,-0.349034026118056,-0.349098419857157,-0.349163098221882,-0.349228060987433,-0.349293307953804,-0.349358838914028,-0.349424653645327,-0.349490751962311,-0.349557133608109,-0.349623798375755,-0.349690746029386,-0.34975797635114,-0.349825489136342,-0.349893284173561,-0.349961361238522,-0.35002972010316,-0.350098360543048,-0.350167282371279,-0.350236485378194,-0.350305969357702,-0.350375734077209,-0.35044577930111,-0.350516104842205,-0.350586710483256,-0.350657595990287,-0.350728761174472,-0.350800205851251,-0.35087192982668,-0.350943932885756,-0.351016214815123,-0.351088775419339,-0.351161614476529,-0.351234731736681,-0.351308127004196,-0.351381800111009,-0.351455750847194,-0.351529978992231,-0.351604484376542,-0.351679266800575,-0.351754326056511,-0.351829661949348,-0.351905274261673,-0.351981162811026,-0.352057327406259,-0.352133767809546,-0.352210483831595,-0.35228747530498,-0.352364742046294,-0.352442283827083,-0.352520100424835,-0.352598191687854,-0.35267655736754,-0.352755197265871,-0.352834111193389,-0.352913298957031,-0.352992760373638,-0.353072495215561,-0.353152503301339,-0.353232784448171,-0.353313338469997,-0.353394165121342,-0.353475264229723,-0.353556635656045,-0.353638279212824,-0.353720194696022,-0.353802381913194,-0.35388484066602,-0.35396757077407,-0.354050572040496,-0.354133844279334,-0.35421738730235,-0.354301200894635,-0.354385284877836,-0.354469639073312,-0.354554263295617,-0.354639157394449,-0.354724321161421,-0.354809754411971,-0.354895456967534,-0.35498142863963,-0.355067669260701,-0.355154178628299,-0.355240956585939,-0.355328002979454,-0.355415317606771,-0.355502900274003,-0.35559075081646,-0.355678869030029,-0.355767254725789,-0.355855907689049,-0.35594482776911,-0.356034014834422,-0.356123468692862,-0.356213189172019,-0.356303176078237,-0.356393429205245,-0.356483948388054,-0.356574733464268,-0.356665784264248,-0.356757100636791,-0.356848682387799,-0.356940529332341,-0.357032641310145,-0.357125018139472,-0.357217659645844,-0.35731056566175,-0.357403736003522,-0.357497170516529,-0.357590869015128,-0.357684831335003,-0.357779057351414,-0.357873546880524,-0.35796829972127,-0.358063315685993,-0.358158594631067,-0.358254136390049,-0.358349940778633,-0.358446007638224,-0.358542336786205,-0.358638928060931,-0.358735781322145,-0.358832896390789,-0.358930273096038,-0.359027911279899,-0.359125810797985,-0.35922397149052,-0.359322393196054,-0.359421075741704,-0.359520018936221,-0.35961922264518,-0.359718686707303,-0.359818410958646,-0.359918395250141,-0.360018639456864,-0.360119143406166,-0.36021990691778,-0.360320929836569,-0.36042221199341,-0.360523753184895,-0.360625553285441,-0.360727612132983,-0.360829929565758,-0.360932505423433,-0.361035339567195,-0.361138431851031,-0.361241782126681,-0.361345390227222,-0.361449255998339,-0.361553379254038,-0.361657759842222,-0.36176239762771,-0.361867292494855,-0.361972444253962,-0.362077852770589,-0.362183517903303,-0.362289439539183,-0.362395617524929,-0.362502051674357,-0.36260874182067,-0.362715687831598,-0.36282288952048,-0.362930346745861,-0.363038059383764,-0.363146027289134,-0.363254250324632,-0.363362728336158,-0.363471461156669,-0.363580448604765,-0.3636896905724,-0.36379918691984,-0.363908937497446,-0.364018942171639,-0.364129200799005,-0.364239713241645,-0.36435047933676,-0.364461498947156,-0.364572771936129,-0.364684298187485,-0.364796077540109,-0.364908109835215,-0.365020394926462,-0.365132932716521,-0.365245723055856,-0.365358765806239,-0.365472060809134,-0.365585607930756,-0.365699407056548,-0.365813458019108,-0.365927760690703,-0.36604231493475,-0.366157120602064,-0.366272177509565,-0.366387485572766,-0.366503044641597,-0.366618854584011,-0.366734915260803,-0.366851226571801,-0.366967788388026,-0.367084600538399,-0.36720166287842,-0.367318975283945,-0.367436537637319,-0.36755434980149,-0.367672411665205,-0.367790723097244,-0.367909283925697,-0.368028094015982,-0.368147153246369,-0.368266461498081,-0.368386018661369,-0.368505824613451,-0.368625879219284,-0.368746182362193,-0.368866733872639,-0.368987533636659,-0.369108581530221,-0.369229877395029,-0.369351421116409,-0.369473212607668,-0.369595251721823,-0.369717538324948,-0.369840072271701,-0.369962853479031,-0.370085881833086,-0.370209157180869,-0.370332679405853,-0.370456448420624,-0.37058046408921,